1571129566.00
64.000000
-0.00
-0.00
-0.00
-0.00
-0.00
-0.00
-0.00
-0.00
-0.00
-0.00
0.00
0.01
0.01
-0.00
-0.03
-0.05
-0.05
0.00
0.13
0.36
0.66
1.01
1.37
1.72
2.06
2.40
2.79
3.24
3.80
4.42
5.06
5.66
6.20
6.68
7.15
7.68
8.31
9.14
10.09
11.04
11.88
12.56
13.14
13.76
14.65
15.96
17.91
20.32
22.90
25.38
27.58
29.57
31.67
34.32
37.81
42.54
48.15
54.11
59.85
65.00
69.62
74.20
79.42
85.80
93.88
103.15
112.80
121.94
130.01
137.03
143.62
151.10
158.17
167.08
178.42
192.31
207.53
221.18
228.91
226.08
209.31
177.72
133.68
81.05
24.16
-33.75
-91.12
-147.71
-203.63
-258.60
-311.78
-361.71
-407.44
-448.26
-483.59
-512.52
-533.69
-545.33
-545.70
-533.70
-509.10
-473.11
-427.83
-375.88
-319.91
-262.15
-204.34
-147.72
-93.35
-42.07
5.14
47.41
84.08
114.87
139.90
159.66
174.80
185.96
193.66
198.19
199.75
198.47
194.58
188.41
180.35
170.92
160.52
149.54
138.29
127.01
115.92
105.25
95.18
85.72
76.96
68.95
61.71
55.24
49.53
44.53
40.23
36.56
33.44
31.02
29.22
27.90
26.94
26.23
25.50
24.76
24.05
23.38
22.83
22.41
22.17
22.16
22.45
23.10
24.20
25.80
27.88
30.42
33.40
36.77
40.52
44.65
49.16
54.09
59.50
65.31
71.48
77.97
84.75
91.78
99.00
106.33
113.68
120.93
127.78
133.93
139.15
143.28
146.25
148.07
148.88
148.87
148.36
147.39
146.06
144.46
142.60
140.41
137.66
133.97
128.70
122.82
116.67
110.44
104.22
98.08
92.07
86.24
80.64
75.36
70.50
65.93
61.53
57.25
53.04
48.88
44.78
40.78
36.94
33.38
30.02
26.84
23.84
21.03
18.42
16.01
13.79
11.75
9.90
8.12
6.30
4.40
2.41
0.31
-1.82
-3.92
-5.88
-7.58
-8.95
-9.89
-10.36
-10.27
-9.60
-8.34
-6.52
-4.19
-1.43
1.65
4.90
8.18
11.34
14.24
16.74
18.71
20.09
20.79
20.79
20.07
18.66
16.61
13.97
10.84
7.32
3.51
-0.48
-4.57
-8.67
-12.70
-16.61
-20.36
-23.95
-27.38
-30.66
-33.81
-36.79
-39.61
-42.22
-44.61
-46.79
-48.81
-50.72
-52.56
-54.60
-57.06
-59.99
-63.34
-66.99
-70.90
-75.16
-80.02
-85.79
-93.09
-102.32
-113.73
-127.28
-142.71
-159.67
-177.74
-196.47
-215.28
-234.10
-252.38
-269.10
-282.82
-291.84
-294.66
-290.20
-277.93
-257.83
-232.23
-203.32
-173.01
-142.74
-113.69
-87.22
-65.08
-49.06
-40.46
-43.61
-60.51
-91.15
-133.01
-182.06
-234.24
-286.55
-337.24
-385.20
-435.97
-493.00
-558.15
-629.96
-704.03
-774.83
-837.74
-890.84
-935.57
-984.91
-1049.74
-1137.14
-1244.86
-1361.15
-1469.44
-1554.99
-1610.35
-1583.62
-1450.40
-1209.48
-887.80
-527.41
-169.06
159.13
444.08
684.38
886.24
1039.19
1151.38
1230.20
1280.71
1305.37
1304.66
1278.83
1230.52
1167.01
1092.78
1017.38
947.55
887.20
836.27
790.64
745.98
697.30
642.48
579.30
510.46
438.65
367.09
299.15
238.04
186.71
147.02
119.57
101.32
88.66
76.66
61.55
42.11
19.50
-3.64
-24.78
-42.15
-55.96
-67.46
-79.23
-93.45
-111.06
-131.59
-153.58
-175.45
-195.87
-213.96
-229.55
-243.13
-255.09
-265.20
-272.48
-275.37
-272.28
-263.60
-248.46
-226.56
-198.39
-165.05
-128.04
-89.01
-49.65
-11.57
23.73
55.28
82.11
103.60
119.49
129.88
135.22
136.16
133.47
127.86
120.18
110.96
100.68
89.71
78.33
66.77
55.12
43.50
31.97
20.73
9.84
-0.51
-10.14
-18.91
-26.64
-33.17
-38.28
-41.71
-43.04
-43.08
-42.21
-40.73
-38.89
-36.90
-34.93
-33.15
-31.70
-30.66
-30.10
-29.90
-29.92
-30.07
-30.28
-30.53
-30.81
-31.13
-31.48
-31.80
-31.86
-31.48
-30.53
-28.99
-26.94
-24.55
-21.99
-19.36
-16.68
-13.74
-10.34
-6.38
-1.88
2.89
7.59
11.91
15.70
19.10
22.56
26.61
31.66
37.80
44.72
51.83
58.53
64.54
70.13
76.06
83.37
92.81
104.59
118.13
132.25
145.64
157.49
167.89
178.05
189.97
205.71
226.47
251.76
279.16
304.88
324.76
335.46
335.28
324.31
304.15
277.48
247.57
217.86
191.37
169.99
153.92
141.48
129.96
116.93
101.58
85.18
70.28
59.05
51.84
46.83
41.09
32.41
20.82
8.73
-0.43
-4.28
-3.13
-0.05
0.83
-3.39
-12.49
-23.17
-30.79
-32.12
-27.16
-19.33
-13.48
-13.25
-18.96
-27.55
-34.44
-36.17
-32.44
-26.17
-21.74
-22.34
-28.04
-35.63
-40.46
-39.11
-31.44
-20.75
-12.10
-9.48
-13.56
-21.36
-27.88
-29.00
-23.78
-15.00
-7.52
-5.50
-9.89
-18.03
-25.12
-27.05
-22.81
-14.99
-8.23
-6.47
-10.65
-18.20
-24.62
-26.07
-21.70
-14.03
-7.49
-5.83
-9.93
-17.30
-23.53
-24.78
-20.06
-11.78
-4.37
-1.82
-5.30
-12.56
-19.21
-21.23
-17.43
-10.04
-3.51
-1.81
-6.01
-13.67
-20.17
-21.47
-16.56
-8.07
-0.80
1.10
-3.41
-11.65
-18.69
-20.31
-15.38
-6.60
1.10
3.38
-0.93
-9.17
-16.41
-18.33
-13.76
-5.43
1.69
3.32
-1.58
-10.22
-17.54
-19.25
-14.31
-5.52
2.10
4.24
-0.23
-8.64
-16.10
-18.30
-13.96
-5.57
2.21
5.16
1.96
-5.10
-11.56
-13.42
-9.50
-2.12
4.28
5.74
1.11
-7.25
-14.80
-17.42
-13.81
-6.20
0.90
3.34
-0.27
-7.77
-14.68
-16.87
-12.97
-5.16
2.05
4.52
0.99
-6.20
-12.42
-13.51
-8.30
0.66
8.59
11.21
7.23
-0.98
-8.77
-11.93
-9.08
-2.44
3.62
5.10
0.86
-6.76
-13.26
-14.68
-9.94
-1.56
5.85
8.19
4.38
-3.12
-9.70
-11.36
-7.07
0.60
7.07
8.37
3.58
-4.65
-11.64
-13.38
-8.86
-0.69
6.44
8.43
4.10
-4.12
-11.61
-14.19
-10.53
-2.86
4.32
6.83
3.29
-4.13
-10.97
-13.10
-9.13
-1.29
5.92
8.35
4.65
-2.93
-9.84
-11.91
-7.84
0.02
7.07
9.13
4.89
-3.32
-10.94
-13.77
-10.48
-3.33
3.21
5.08
1.10
-6.33
-12.62
-13.77
-8.69
-0.02
7.44
9.50
5.02
-3.36
-10.82
-13.09
-8.92
-0.77
6.69
9.27
5.71
-1.63
-8.23
-10.01
-5.74
2.24
9.36
11.48
7.30
-0.84
-8.28
-10.76
-6.84
1.19
8.64
11.17
7.27
-0.79
-8.35
-11.05
-7.37
0.50
7.92
10.55
6.84
-1.11
-8.79
-11.92
-8.98
-2.05
4.44
6.35
2.35
-5.34
-12.13
-13.83
-9.13
-0.49
7.30
9.84
5.68
-2.77
-10.61
-13.32
-9.33
-0.93
7.11
10.30
7.04
-0.50
-7.68
-10.15
-6.39
1.40
8.63
11.01
7.08
-0.88
-8.25
-10.70
-6.82
1.08
8.28
10.43
6.14
-2.24
-9.90
-12.46
-8.48
-0.35
7.15
9.64
5.70
-2.34
-9.76
-12.18
-8.21
-0.18
7.17
9.55
5.62
-2.24
-9.34
-11.47
-7.40
0.41
7.33
9.21
4.94
-2.96
-9.84
-11.59
-7.11
1.08
8.25
10.25
5.93
-2.22
-9.48
-11.67
-7.60
0.23
7.12
8.90
4.43
-3.72
-10.85
-12.81
-8.47
-0.34
6.90
9.17
5.35
-2.11
-8.65
-10.30
-6.02
1.67
8.17
9.54
4.81
-3.37
-10.26
-11.75
-6.81
1.93
9.63
12.04
7.95
-0.19
-7.69
-10.32
-6.77
0.69
7.58
9.81
6.11
-1.25
-7.82
-9.55
-5.20
2.88
10.18
12.56
8.80
1.28
-5.43
-7.25
-3.05
4.65
11.19
12.48
7.51
-1.05
-8.45
-10.62
-6.57
0.97
7.24
8.18
2.94
-5.72
-12.93
-14.64
-9.97
-1.72
5.28
7.03
2.67
-4.99
-11.17
-11.93
-6.50
2.25
9.47
11.14
6.44
-1.87
-8.95
-10.76
-6.32
1.76
8.82
10.85
6.83
-0.79
-7.51
-9.44
-5.56
1.66
7.79
9.05
4.59
-3.04
-9.34
-10.57
-6.02
1.67
7.99
9.25
4.80
-2.64
-8.56
-9.35
-4.41
3.49
9.83
10.95
6.23
-1.68
-8.33
-10.10
-6.27
0.64
6.34
7.36
3.05
-4.05
-9.72
-10.55
-5.99
1.30
6.97
7.58
2.62
-5.15
-11.21
-11.97
-6.89
1.14
7.48
8.44
3.48
-4.43
-10.59
-11.29
-6.03
2.19
8.67
9.76
5.01
-2.60
-8.44
-8.95
-3.72
4.29
10.51
11.43
6.61
-1.07
-7.15
-8.15
-3.64
3.54
8.95
9.14
3.81
-4.03
-9.79
-10.01
-4.44
3.69
9.55
9.52
3.30
-5.80
-12.75
-13.65
-7.97
1.09
8.48
10.14
5.35
-2.89
-9.64
-10.85
-5.79
2.59
9.44
10.78
5.91
-2.18
-8.60
-9.49
-4.24
4.09
10.62
11.50
6.15
-2.43
-9.43
-11.09
-6.82
0.48
6.21
6.77
1.78
-5.81
-11.38
-11.48
-5.85
2.37
8.44
8.85
3.39
-4.73
-10.70
-11.00
-5.39
2.92
9.25
10.11
5.31
-2.06
-7.51
-7.83
-2.98
3.90
8.44
7.63
1.58
-6.49
-12.13
-12.31
-7.19
-0.06
4.70
4.31
-0.82
-7.39
-11.25
-9.89
-4.06
2.74
6.34
4.53
-1.16
-6.51
-6.94
-0.31
11.61
24.12
32.21
33.61
30.46
29.02
36.36
57.04
90.93
133.52
178.36
220.38
258.13
291.22
321.68
351.10
378.77
401.09
412.77
409.07
387.77
349.95
299.62
242.50
183.77
126.81
72.80
21.36
-28.04
-75.11
-118.38
-155.37
-183.23
-200.43
-207.47
-207.05
-203.27
-199.96
-199.47
-202.69
-209.10
-217.28
-225.41
-231.21
-231.29
-223.37
-206.65
-182.44
-154.66
-128.23
-106.90
-91.60
-79.72
-66.92
-49.95
-30.24
-12.01
-3.12
-10.38
-35.65
-73.82
-113.84
-142.41
-149.18
-131.12
-93.90
-49.36
-9.85
16.76
29.32
32.04
29.11
23.56
14.99
0.53
-22.54
-53.28
-86.29
-114.08
-130.41
-132.49
-121.37
-100.05
-71.90
-40.17
-8.03
20.79
42.60
53.77
53.52
44.84
33.03
23.41
18.71
19.26
23.82
30.91
39.48
48.51
55.68
56.69
47.58
25.44
-7.78
-44.73
-74.83
-88.43
-80.74
-53.45
-13.79
28.40
63.59
85.19
90.16
78.60
53.01
17.88
-20.82
-56.72
-82.87
-94.83
-91.82
-76.51
-53.33
-26.77
-0.63
22.20
39.70
50.78
55.50
55.69
54.09
53.54
55.73
60.40
65.76
69.19
68.01
59.86
44.40
22.63
-1.86
-23.41
-35.98
-35.52
-22.05
0.34
23.63
39.87
44.53
38.16
25.08
10.52
-1.88
-11.18
-18.23
-24.20
-29.15
-32.08
-31.81
-28.17
-22.34
-16.32
-12.13
-10.68
-11.46
-12.91
-13.22
-11.27
-7.09
-1.89
2.67
5.28
5.70
4.75
3.97
4.72
7.57
11.95
16.45
19.56
20.44
19.42
17.73
16.96
18.16
21.32
25.32
28.51
29.57
28.06
24.59
20.56
17.32
15.69
15.92
17.89
21.10
24.21
24.57
18.43
1.98
-26.68
-65.97
-110.51
-152.76
-185.87
-206.24
-214.73
-214.60
-209.23
-200.07
-186.18
-165.69
-137.95
-105.04
-71.37
-41.72
-18.92
-2.57
10.34
23.53
39.02
55.83
70.48
79.07
79.64
73.61
65.19
59.25
58.86
63.58
69.96
73.51
71.33
63.72
53.85
45.80
42.09
42.43
44.20
44.38
41.56
36.80
32.74
31.83
34.50
38.78
41.41
39.73
33.28
24.14
15.88
11.73
12.90
18.08
24.12
27.78
27.30
23.35
18.53
15.85
17.03
21.42
26.31
28.47
26.02
19.62
12.03
6.60
5.28
7.45
10.42
10.82
6.59
-1.78
-11.44
-18.83
-21.67
-20.27
-17.31
-16.29
-19.51
-26.79
-35.57
-42.40
-44.89
-43.02
-39.11
-36.37
-37.11
-41.34
-46.78
-50.19
-49.27
-43.97
-36.60
-30.52
-28.20
-29.84
-33.30
-35.28
-33.34
-27.35
-19.58
-13.41
-11.33
-13.34
-17.03
-18.92
-16.61
-10.21
-2.29
3.57
4.95
1.98
-2.72
-5.64
-4.41
0.76
7.32
11.80
11.95
8.04
2.66
-0.77
-0.02
4.62
10.55
14.36
13.87
9.42
3.69
0.11
0.90
5.66
11.69
15.49
14.81
9.96
3.61
-0.73
-0.76
3.29
8.86
12.50
11.94
7.33
1.19
-3.14
-3.41
0.25
5.42
8.85
8.39
4.34
-0.79
-3.69
-2.31
2.91
9.22
13.13
12.52
7.87
1.97
-1.74
-1.18
3.14
8.43
11.34
9.91
4.81
-1.10
-4.45
-3.37
1.44
7.09
10.16
8.75
3.53
-2.64
-6.33
-5.58
-0.94
4.84
8.40
7.75
3.39
-2.09
-5.49
-4.88
-0.72
4.47
7.56
6.72
2.52
-2.44
-4.97
-3.31
1.85
7.63
10.64
8.96
3.31
-3.29
-7.31
-6.76
-2.31
3.11
6.08
4.70
-0.25
-5.88
-8.79
-7.15
-1.77
4.41
7.99
7.13
2.56
-2.83
-5.78
-4.55
0.09
5.30
7.88
6.24
1.35
-3.84
-6.12
-3.98
1.51
7.24
9.95
8.05
2.60
-3.33
-6.42
-5.01
-0.10
5.33
7.96
6.15
0.87
-4.88
-7.79
-6.27
-1.34
3.97
6.38
4.36
-0.95
-6.40
-8.71
-6.39
-0.65
5.29
8.08
6.17
0.67
-5.30
-8.40
-6.98
-1.95
3.76
7.00
6.15
2.12
-2.30
-4.11
-1.89
3.27
8.41
10.41
7.88
2.08
-3.79
-6.42
-4.40
0.98
6.35
8.35
5.59
-0.47
-6.35
-8.56
-5.72
0.62
6.89
9.55
7.22
1.39
-4.43
-6.88
-4.70
0.56
5.54
7.04
4.00
-1.94
-7.37
-9.13
-6.19
-0.24
5.28
7.19
4.45
-1.27
-6.53
-8.17
-5.15
0.82
6.33
8.26
5.56
-0.05
-5.24
-6.96
-4.24
1.24
6.16
7.53
4.48
-1.28
-6.45
-8.04
-5.15
0.53
5.76
7.60
5.19
0.18
-4.28
-5.42
-2.51
2.64
6.80
7.20
3.24
-3.09
-8.32
-9.47
-5.82
0.69
6.50
8.53
5.86
0.28
-4.84
-6.53
-3.96
1.12
5.46
6.32
3.10
-2.29
-6.64
-7.30
-3.81
1.83
6.37
7.19
3.85
-1.67
-6.10
-6.85
-3.48
2.06
6.54
7.34
3.96
-1.69
-6.43
-7.63
-4.72
0.49
4.86
5.80
2.73
-2.49
-6.68
-7.21
-3.53
2.40
7.30
8.42
5.20
-0.39
-4.99
-5.85
-2.45
3.15
7.57
8.06
4.26
-1.66
-6.19
-6.60
-2.57
3.59
8.28
8.75
4.70
-1.50
-6.28
-6.92
-3.16
2.65
6.99
7.22
3.15
-2.82
-7.20
-7.39
-3.26
2.77
7.17
7.39
3.34
-2.56
-6.83
-6.95
-2.96
2.66
6.44
5.99
1.48
-4.45
-8.27
-7.66
-2.91
3.24
7.21
6.64
1.79
-4.63
-9.04
-9.02
-4.72
1.29
5.48
5.49
1.36
-4.40
-8.35
-8.16
-3.92
1.88
5.84
5.67
1.57
-3.90
-7.33
-6.48
-1.64
4.52
8.54
8.17
3.71
-2.16
-5.99
-5.60
-1.35
4.09
7.33
6.32
1.63
-3.93
-6.95
-5.50
-0.32
5.61
8.84
7.50
2.42
-3.37
-6.40
-4.83
0.45
6.42
9.59
8.09
2.73
-3.58
-7.42
-6.91
-2.73
2.33
5.03
3.60
-1.24
-6.66
-9.39
-7.68
-2.38
3.60
6.88
5.68
0.87
-4.55
-7.16
-5.23
0.26
6.18
9.08
7.18
1.49
-4.89
-8.51
-7.64
-3.18
1.98
4.68
3.44
-0.69
-4.86
-6.11
-3.23
2.47
7.87
9.84
7.07
0.94
-5.25
-8.09
-6.02
-0.25
5.96
9.17
7.72
2.68
-2.86
-5.62
-4.05
0.74
5.78
7.92
5.78
0.55
-4.74
-7.04
-5.05
-0.04
4.95
6.89
4.58
-0.62
-5.57
-7.19
-4.35
1.44
6.86
8.68
5.68
-0.54
-6.49
-8.79
-6.14
-0.15
5.59
7.64
4.70
-1.57
-7.53
-9.76
-7.03
-1.04
4.63
6.69
4.08
-1.49
-6.58
-8.18
-5.45
-0.19
4.33
5.40
2.46
-2.56
-6.48
-6.74
-3.00
2.73
7.20
7.87
4.34
-1.29
-5.77
-6.44
-2.85
2.99
7.79
8.82
5.52
-0.18
-4.99
-6.17
-3.12
2.24
6.61
7.22
3.49
-2.63
-7.79
-9.19
-6.21
-0.76
3.85
4.89
1.82
-3.38
-7.42
-7.60
-3.56
2.57
7.27
7.81
3.81
-2.41
-7.24
-7.81
-3.75
2.63
7.69
8.55
4.88
-1.00
-5.45
-5.68
-1.41
4.94
9.66
9.93
5.46
-1.32
-6.76
-8.06
-4.93
0.33
4.19
4.10
0.03
-5.47
-8.84
-7.63
-2.03
5.14
10.10
10.28
5.88
-0.27
-4.38
-3.91
0.89
7.21
11.34
10.86
6.05
-0.33
-4.76
-4.99
-1.37
3.49
6.27
4.95
-0.02
-6.00
-9.74
-9.28
-5.07
0.34
3.75
3.22
-0.85
-5.95
-8.95
-7.98
-3.50
1.92
5.12
4.20
-0.31
-5.77
-8.97
-7.97
-3.29
2.44
6.00
5.40
1.11
-4.28
-7.58
-6.84
-2.52
2.75
5.86
4.96
0.71
-4.15
-6.40
-4.31
1.29
7.39
10.55
8.90
3.27
-3.28
-7.21
-6.57
-2.12
3.16
5.86
4.19
-0.94
-6.49
-9.04
-6.88
-1.01
5.43
8.90
7.61
2.48
-3.38
-6.49
-5.08
-0.07
5.48
8.21
6.42
1.10
-4.75
-7.84
-6.53
-1.77
3.52
6.22
4.89
0.54
-3.96
-5.65
-3.25
2.01
7.11
9.02
6.51
0.89
-4.63
-6.86
-4.48
1.14
6.67
8.78
6.09
0.03
-6.00
-8.58
-6.31
-0.67
4.92
7.10
4.59
-1.04
-6.36
-8.10
-5.19
0.70
6.12
7.91
5.07
-0.66
-5.86
-7.52
-4.71
0.86
5.92
7.51
4.76
-0.64
-5.46
-6.75
-3.63
2.20
7.43
9.04
6.07
0.16
-5.36
-7.49
-5.26
-0.31
4.13
5.18
2.08
-3.38
-7.91
-8.74
-5.28
0.55
5.38
6.45
3.15
-2.56
-7.33
-8.39
-5.09
0.65
5.52
6.69
3.49
-2.19
-7.02
-8.12
-4.78
1.07
6.04
7.23
4.05
-1.47
-5.78
-6.02
-1.75
4.71
9.67
10.20
5.98
-0.61
-5.85
-6.86
-3.33
2.47
7.00
7.56
3.84
-1.97
-6.50
-7.14
-3.55
2.16
6.65
7.32
3.76
-1.91
-6.33
-6.80
-2.94
3.10
7.81
8.43
4.57
-1.54
-6.34
-7.05
-3.36
2.43
6.75
6.85
2.46
-4.04
-9.05
-9.80
-5.97
0.13
4.96
5.78
2.24
-3.43
-7.82
-8.31
-4.62
1.08
5.49
6.14
2.84
-2.27
-6.01
-6.07
-2.38
2.89
6.62
6.59
2.82
-2.45
-6.11
-5.95
-1.98
3.53
7.41
7.43
3.65
-1.69
-5.33
-5.04
-0.87
4.77
8.54
8.10
3.51
-2.79
-7.38
-7.85
-4.20
1.18
4.96
4.84
0.93
-4.34
-7.65
-6.79
-2.01
4.05
7.93
7.30
2.40
-4.11
-8.63
-8.77
-4.68
0.97
4.62
3.90
-0.87
-6.92
-10.61
-9.63
-4.30
2.56
7.35
7.80
4.24
-0.65
-3.54
-2.45
2.07
7.27
9.85
7.97
2.41
-3.82
-7.20
-5.72
-0.10
6.56
10.52
9.51
4.09
-2.71
-7.15
-6.90
-2.41
3.41
6.97
6.12
1.40
-4.30
-7.49
-6.21
-1.13
4.80
8.11
6.86
1.80
-4.07
-7.25
-5.79
-0.49
5.58
8.85
7.33
1.84
-4.45
-7.90
-6.52
-1.19
4.88
8.03
6.28
0.53
-6.00
-9.71
-8.67
-3.76
1.92
4.88
3.35
-1.70
-7.19
-9.71
-7.60
-1.92
4.17
7.25
5.66
0.52
-5.01
-7.53
-5.48
-0.05
5.47
7.67
5.02
-1.16
-7.44
-10.26
-7.98
-1.81
4.80
8.23
6.70
1.33
-4.53
-7.30
-5.20
0.69
7.11
10.53
9.23
4.31
-1.03
-3.41
-1.34
3.86
8.86
10.29
6.85
0.09
-6.35
-8.95
-6.31
-0.06
6.11
8.57
5.78
-0.75
-7.47
-10.79
-9.19
-4.03
1.31
3.45
0.98
-4.74
-10.45
-12.95
-10.95
-5.88
-0.96
0.63
-2.32
-8.32
-14.07
-16.39
-14.08
-8.63
-3.34
-1.43
-4.20
-10.43
-17.07
-21.11
-21.31
-18.86
-16.52
-17.00
-21.24
-27.92
-34.38
-38.26
-39.02
-38.35
-39.10
-43.58
-52.08
-62.67
-72.34
-78.88
-82.22
-84.53
-88.78
-96.93
-108.62
-121.34
-131.98
-138.73
-142.31
-145.70
-152.42
-164.39
-180.56
-196.99
-208.49
-210.71
-201.92
-183.51
-159.04
-132.48
-106.31
-80.51
-52.61
-19.14
22.97
75.10
136.27
203.28
271.55
336.11
392.54
437.48
468.66
484.79
485.61
471.94
445.77
410.23
369.20
326.55
285.44
247.75
213.94
183.64
156.11
130.69
107.25
86.09
67.83
52.93
41.41
32.63
25.59
19.19
12.45
4.69
-4.43
-14.79
-25.94
-36.46
-46.19
-55.00
-62.80
-69.38
-74.47
-77.87
-79.18
-78.03
-74.26
-68.29
-60.93
-53.45
-47.41
-44.28
-45.26
-50.57
-59.39
-70.35
-82.10
-93.63
-104.70
-115.71
-127.10
-139.08
-150.59
-159.46
-162.87
-158.37
-144.73
-122.43
-93.39
-57.44
-16.58
27.08
71.57
114.93
154.67
187.72
210.89
220.70
214.35
189.95
147.32
87.58
13.26
-70.14
-153.65
-226.38
-278.32
-303.68
-303.24
-283.37
-253.39
-221.71
-193.89
-172.29
-156.84
-146.46
-139.58
-134.22
-127.01
-115.71
-95.47
-62.27
-15.30
41.88
101.42
152.61
185.05
192.91
177.53
147.76
115.98
92.33
80.44
76.30
71.71
58.17
31.48
-6.55
-49.68
-91.58
-129.66
-165.17
-200.94
-238.11
-274.39
-304.56
-322.33
-324.34
-307.78
-272.34
-220.16
-155.73
-85.52
-17.00
43.37
91.57
126.79
152.22
172.66
192.01
211.34
228.94
242.04
248.93
249.95
246.95
241.87
235.19
225.90
212.66
195.19
174.81
154.04
135.61
121.22
111.14
104.12
98.10
91.23
82.68
72.90
63.17
54.97
49.24
45.99
44.42
43.13
40.64
36.03
28.96
19.58
8.16
-4.31
-18.26
-34.05
-51.81
-71.09
-90.70
-108.87
-123.57
-132.92
-135.51
-130.87
-119.24
-101.46
-79.62
-56.10
-33.30
-13.32
2.25
12.45
16.97
16.59
11.91
3.90
-6.22
-17.26
-28.28
-38.55
-47.73
-55.71
-62.49
-68.21
-72.82
-76.05
-77.44
-76.45
-72.62
-65.62
-55.40
-41.99
-26.26
-9.26
8.02
24.68
40.04
53.63
65.13
74.37
81.26
85.86
88.43
89.36
89.21
88.63
88.16
88.10
88.53
89.09
89.35
88.91
87.26
84.34
80.34
75.42
69.60
63.09
54.89
44.41
31.47
16.55
1.07
-12.94
-23.60
-29.78
-31.47
-29.98
-27.25
-25.21
-25.43
-27.93
-31.73
-35.70
-38.98
-41.61
-44.32
-47.94
-53.13
-60.83
-71.21
-84.09
-98.47
-111.82
-120.26
-119.61
-107.17
-80.97
-47.36
-14.91
8.88
20.21
19.86
11.80
0.57
-10.60
-20.51
-29.68
-37.84
-44.00
-46.99
-46.54
-44.00
-41.74
-42.03
-45.93
-52.91
-60.55
-66.31
-68.78
-68.26
-66.80
-66.72
-69.29
-73.95
-78.56
-79.83
-74.81
-62.34
-41.24
-11.95
23.58
61.79
97.80
126.28
143.79
149.29
146.20
140.64
137.87
139.60
143.35
144.41
139.29
128.75
118.18
113.36
117.77
129.63
142.56
148.47
141.59
120.38
89.35
55.41
24.54
-0.38
-19.95
-36.32
-51.03
-63.85
-73.17
-77.27
-75.98
-70.95
-64.85
-60.54
-59.52
-61.61
-65.27
-68.52
-69.77
-69.12
-67.47
-66.38
-67.28
-70.67
-75.98
-81.98
-87.42
-91.61
-94.83
-98.12
-102.74
-109.42
-118.02
-127.58
-136.89
-145.22
-152.50
-159.46
-167.28
-176.76
-187.55
-198.01
-205.57
-207.53
-201.93
-188.29
-166.68
-137.85
-102.87
-62.45
-17.01
32.95
86.52
141.68
196.37
248.39
294.61
330.44
350.24
349.03
324.98
282.20
228.57
174.62
129.65
98.26
79.47
68.57
60.42
52.28
44.47
38.75
36.60
37.45
38.60
36.81
30.16
19.16
6.50
-4.01
-9.46
-9.06
-4.38
1.16
4.17
2.60
-3.41
-12.21
-21.81
-30.68
-37.09
-38.36
-31.04
-12.56
16.14
49.11
76.65
89.30
82.47
59.02
27.89
-0.55
-19.34
-27.54
-28.89
-28.28
-28.42
-28.81
-27.32
-22.57
-15.51
-8.91
-5.56
-6.77
-11.53
-17.26
-21.01
-21.06
-17.49
-12.00
-7.01
-4.49
-5.16
-8.24
-11.98
-14.51
-14.73
-12.63
-9.28
-6.09
-4.28
-4.33
-5.89
-8.03
-9.72
-10.33
-9.69
-8.23
-6.58
-5.40
-5.11
-5.81
-7.24
-8.94
-10.45
-11.33
-11.41
-10.76
-9.81
-9.17
-9.42
-10.86
-13.34
-16.29
-18.84
-20.28
-20.34
-19.46
-18.60
-18.84
-20.87
-24.61
-29.19
-33.27
-35.83
-36.46
-35.61
-34.37
-33.87
-34.98
-38.23
-43.93
-51.83
-60.59
-67.27
-67.91
-58.87
-38.95
-10.55
20.65
47.87
66.02
73.59
72.80
67.69
61.85
56.93
52.65
48.05
42.80
37.64
33.85
32.26
32.53
33.46
33.57
31.76
28.05
23.34
18.97
16.05
15.01
15.43
16.32
16.61
15.64
13.41
10.53
7.85
6.07
5.47
5.80
6.47
6.87
6.62
5.73
4.51
3.39
2.74
2.68
3.09
3.73
4.28
4.61
4.71
4.73
4.78
5.04
5.53
6.25
7.10
8.00
8.91
9.85
10.82
11.84
12.90
14.01
15.19
16.44
17.74
19.17
20.78
22.60
24.67
26.91
29.22
31.47
33.57
35.00
35.36
34.34
31.61
27.11
20.94
13.35
4.86
-3.91
-12.31
-19.99
-26.07
-30.32
-32.73
-33.53
-33.11
-31.98
-30.64
-29.54
-28.94
-28.94
-29.51
-30.52
-31.75
-32.95
-33.88
-34.44
-34.57
-34.26
-33.58
-32.75
-31.91
-31.17
-30.59
-30.10
-29.65
-29.17
-28.43
-27.29
-25.68
-23.57
-21.08
-18.37
-15.71
-13.29
-11.31
-9.78
-8.67
-7.86
-7.06
-5.99
-4.38
-2.10
0.80
4.11
7.62
10.83
13.35
15.01
15.74
15.74
15.34
15.01
15.17
16.25
18.17
20.70
23.42
25.74
27.01
26.68
24.36
19.38
12.47
4.19
-4.84
-13.91
-22.39
-29.70
-35.44
-39.39
-41.53
-41.74
-40.45
-37.96
-34.61
-30.83
-26.86
-22.93
-19.25
-15.83
-12.64
-9.78
-7.27
-5.21
-3.74
-2.77
-2.28
-2.14
-2.22
-2.34
-2.46
-2.67
-3.16
-4.33
-6.13
-8.54
-11.37
-14.34
-17.05
-19.32
-21.18
-22.95
-25.27
-28.07
-31.31
-34.68
-37.65
-39.63
-40.32
-39.79
-38.64
-37.76
-37.06
-36.32
-35.01
-32.30
-27.30
-19.12
-6.64
12.04
33.45
56.53
79.88
101.15
117.46
126.14
125.75
116.75
101.20
81.74
61.46
42.11
24.31
8.34
-5.29
-15.65
-21.85
-23.85
-23.08
-21.38
-20.78
-21.97
-23.37
-21.19
-11.03
10.01
41.46
79.07
116.59
147.64
168.00
176.73
175.65
167.76
155.73
141.10
124.54
106.70
88.47
70.79
54.22
38.33
21.73
2.82
-18.98
-42.47
-64.65
-82.08
-92.31
-95.14
-92.63
-88.14
-84.51
-82.86
-82.32
-80.95
-77.33
-71.52
-65.32
-61.40
-62.07
-68.23
-79.01
-92.13
-104.79
-114.49
-119.55
-119.37
-114.07
-104.33
-90.95
-74.73
-56.33
-36.49
-16.09
3.67
21.27
35.16
44.22
48.19
47.92
45.02
41.36
38.36
36.69
36.25
36.61
37.44
38.61
40.17
42.01
43.80
45.24
46.12
46.61
47.11
48.01
49.37
50.69
50.89
48.55
42.42
31.88
17.58
1.94
-11.18
-17.35
-13.15
2.33
26.76
55.02
80.90
99.18
107.44
106.29
98.56
87.70
76.41
65.78
55.65
45.26
33.92
21.42
7.88
-6.41
-21.28
-36.32
-50.95
-64.48
-76.15
-85.59
-93.05
-99.38
-105.65
-112.80
-121.14
-130.27
-139.26
-146.92
-152.27
-154.67
-153.85
-149.88
-143.07
-134.05
-123.96
-114.41
-107.06
-103.01
-102.00
-102.15
-100.24
-92.89
-77.78
-54.65
-25.60
5.75
35.36
59.90
77.31
86.88
89.00
85.05
77.16
67.85
59.58
54.03
51.70
52.02
53.82
56.04
58.17
60.39
63.12
66.55
70.31
73.42
74.73
73.42
69.34
63.12
55.93
49.00
43.27
38.90
35.33
31.66
27.14
21.76
16.49
12.97
12.76
16.74
24.59
34.80
45.10
53.15
57.26
56.92
52.88
46.67
40.10
34.67
31.22
29.92
30.36
31.87
33.75
35.51
36.84
37.61
37.64
36.71
34.49
30.64
24.98
17.39
8.06
-2.64
-14.05
-25.33
-35.64
-44.35
-51.28
-56.71
-61.24
-65.51
-69.94
-74.42
-78.38
-80.74
-80.21
-75.53
-65.85
-51.02
-31.88
-10.19
11.69
31.45
47.37
58.76
65.87
69.53
70.77
70.56
69.78
69.24
69.75
71.87
75.78
80.88
85.76
88.48
87.31
81.58
72.22
61.64
52.73
47.66
46.67
48.10
49.02
46.88
40.75
31.73
22.35
15.12
11.36
10.27
9.48
5.71
-3.87
-20.84
-44.95
-74.03
-104.51
-131.81
-151.53
-159.90
-155.12
-138.11
-113.17
-87.37
-68.90
-64.89
-75.69
-96.89
-118.41
-130.17
-127.51
-112.16
-89.19
-63.90
-40.51
-21.65
-9.26
-3.66
-4.30
-6.82
-5.82
3.71
24.62
55.45
90.37
120.39
137.30
136.33
117.33
83.27
36.52
-17.30
-69.50
-108.57
-127.32
-126.52
-112.19
-90.80
-67.24
-44.64
-25.07
-9.97
-0.30
3.65
2.59
-1.50
-5.97
-7.44
-3.57
5.94
19.24
32.99
43.95
50.32
53.44
58.44
70.98
95.35
131.19
174.44
215.10
242.48
247.09
225.11
181.25
125.04
68.16
18.83
-19.14
-46.37
-65.79
-83.21
-103.92
-130.03
-163.59
-192.71
-207.28
-202.39
-178.04
-134.58
-76.12
-17.44
37.95
83.62
112.82
119.52
102.56
64.96
15.73
-37.14
-87.13
-128.83
-161.72
-188.44
-214.34
-242.52
-271.13
-275.22
-238.70
-164.97
-73.61
12.25
78.02
118.35
136.60
141.18
141.47
140.68
138.67
135.81
133.04
131.45
129.94
125.15
112.81
90.29
56.28
13.73
-29.58
-65.38
-88.71
-99.74
-102.33
-101.25
-99.97
-101.15
-104.94
-108.59
-107.82
-98.77
-79.77
-52.17
-19.89
11.58
36.75
52.45
58.74
58.32
55.22
52.88
53.64
58.10
64.35
68.72
67.71
60.27
48.97
39.05
35.93
41.95
55.22
70.53
82.75
89.67
92.13
91.48
86.77
74.29
50.28
15.28
-23.57
-54.46
-66.42
-55.17
-25.57
10.82
41.52
59.09
63.91
62.57
63.17
70.44
83.08
94.57
96.64
83.52
54.70
15.54
-24.76
-57.06
-75.95
-81.89
-80.01
-77.45
-78.63
-84.00
-90.32
-93.29
-90.25
-81.80
-71.38
-63.28
-60.71
-64.66
-74.21
-86.75
-98.65
-105.81
-103.92
-89.53
-61.28
-21.18
24.73
66.87
94.64
100.00
81.21
44.45
2.40
-30.29
-42.78
-32.07
-3.67
31.65
63.22
84.59
95.14
98.34
98.45
97.71
96.44
94.51
92.68
92.32
93.53
93.64
87.51
69.79
38.19
-4.56
-51.11
-92.50
-121.82
-136.68
-139.28
-134.88
-128.23
-122.71
-120.06
-120.64
-124.25
-130.35
-137.88
-145.26
-150.38
-151.29
-146.60
-135.99
-120.00
-99.70
-76.42
-50.53
-23.54
3.43
29.49
53.72
75.04
92.31
104.72
111.94
114.35
112.79
108.69
103.36
97.73
92.06
86.13
79.44
71.23
61.08
49.01
35.52
21.58
8.26
-3.43
-12.70
-18.98
-22.07
-22.04
-19.37
-14.60
-8.41
-1.53
5.33
11.55
16.67
20.35
22.46
23.01
22.24
20.54
18.35
16.09
14.09
12.54
11.37
10.33
9.00
7.16
4.81
2.25
-0.02
-1.58
-2.20
-2.16
-2.07
-2.65
-4.40
-7.33
-10.87
-14.12
-16.23
-16.87
-16.40
-15.84
-16.35
-18.74
-22.96
-28.13
-32.82
-35.89
-36.79
-35.95
-34.54
-33.84
-34.89
-38.31
-44.38
-52.71
-61.77
-68.44
-68.58
-58.50
-36.97
-6.57
26.81
56.14
76.17
85.39
86.07
82.34
77.75
73.79
69.94
65.12
59.13
53.10
48.81
47.49
48.86
51.37
52.97
52.22
48.85
43.81
38.60
34.48
32.09
31.70
33.46
37.33
42.18
45.49
43.35
31.94
9.66
-21.55
-56.72
-89.78
-115.92
-132.66
-139.32
-135.77
-121.65
-97.05
-63.99
-27.25
6.50
31.10
43.56
45.13
40.17
33.65
28.88
26.80
26.58
26.97
27.33
27.67
28.22
28.94
29.59
30.00
30.01
29.93
30.26
31.37
33.20
35.42
36.87
36.66
34.33
30.06
24.61
19.00
14.00
9.87
6.31
2.65
-1.47
-5.80
-9.45
-11.18
-10.05
-5.96
0.14
6.60
11.61
14.08
14.24
13.35
13.16
15.21
20.24
28.27
38.45
48.71
56.21
57.79
50.95
35.04
11.93
-14.35
-39.13
-57.77
-68.83
-73.45
-73.82
-71.47
-66.63
-58.64
-47.50
-34.67
-23.29
-16.59
-16.87
-24.40
-37.10
-50.99
-60.92
-62.16
-51.42
-28.57
2.37
34.14
58.31
68.39
62.50
43.93
19.45
-3.47
-20.01
-29.78
-35.87
-42.23
-50.98
-61.13
-68.42
-70.20
-65.50
-56.08
-46.04
-39.64
-39.04
-43.96
-50.90
-56.98
-61.24
-64.99
-70.69
-80.79
-96.71
-118.26
-144.06
-171.98
-199.54
-223.67
-240.64
-246.27
-238.03
-216.44
-185.39
-150.88
-118.59
-91.85
-70.20
-54.26
-43.03
-34.94
-28.71
-23.64
-19.11
-14.19
-7.62
1.58
13.43
27.49
42.54
57.02
69.92
81.12
91.35
101.75
113.19
125.87
140.00
155.72
173.33
193.14
214.80
236.57
255.09
266.03
265.50
252.00
226.80
193.42
156.34
119.52
85.67
56.40
32.77
15.70
5.90
3.25
6.60
14.37
25.58
40.61
60.81
87.19
119.06
153.56
186.35
213.34
232.11
242.48
245.73
243.54
237.26
227.98
216.92
205.50
194.89
185.23
175.25
162.85
146.19
124.52
98.27
68.21
34.67
-2.38
-42.48
-83.51
-121.45
-151.28
-168.87
-172.48
-163.04
-143.16
-115.55
-81.98
-43.59
-1.81
40.54
79.20
109.53
128.33
135.06
131.97
123.12
112.81
104.41
99.73
98.71
99.37
98.07
90.08
70.92
37.93
-8.65
-65.58
-127.62
-189.52
-247.74
-301.23
-351.35
-400.87
-452.97
-510.08
-572.78
-638.73
-702.39
-755.72
-790.35
-800.43
-784.53
-745.85
-690.67
-625.79
-556.54
-486.02
-415.82
-346.97
-280.66
-218.09
-159.87
-105.70
-54.56
-5.41
42.18
87.88
130.97
170.75
207.22
241.34
274.90
310.04
348.37
389.84
432.20
471.10
501.29
518.42
520.56
508.97
487.52
461.19
434.36
409.68
387.97
368.77
351.40
335.45
320.97
308.01
296.35
285.43
274.67
263.77
252.83
242.39
232.98
224.75
217.26
209.55
200.72
190.73
181.03
174.13
172.25
175.27
179.26
176.66
158.46
117.71
52.68
-32.22
-127.86
-223.85
-311.85
-387.47
-450.03
-501.29
-544.05
-581.11
-614.47
-644.43
-668.76
-682.56
-679.60
-654.60
-605.84
-536.23
-452.46
-362.48
-272.90
-187.51
-107.55
-32.88
36.99
102.84
166.01
228.52
292.07
356.36
417.89
470.18
506.05
520.40
512.88
488.31
455.04
421.90
395.32
377.99
369.28
366.85
368.53
373.36
381.66
394.34
412.08
434.38
458.98
481.43
495.41
494.19
472.62
429.03
366.07
290.09
208.81
129.24
55.87
-9.96
-69.70
-126.39
-183.13
-241.37
-299.60
-352.75
-392.32
-408.42
-393.49
-345.96
-272.48
-186.65
-105.08
-42.17
-6.89
-0.38
-17.55
-50.88
-94.04
-143.53
-197.78
-255.19
-312.62
-367.17
-414.59
-449.70
-468.34
-468.86
-452.40
-422.01
-382.17
-338.34
-300.18
-275.01
-264.93
-266.35
-272.22
-274.24
-265.39
-242.73
-209.06
-178.06
-162.60
-167.65
-188.17
-213.35
-232.35
-238.79
-233.26
-221.82
-219.01
-232.38
-257.26
-281.40
-295.30
-298.48
-298.55
-305.71
-279.47
-201.38
-85.26
36.53
141.76
224.27
284.81
326.02
351.28
364.82
363.73
348.12
323.72
299.07
280.04
267.81
260.94
257.26
255.13
248.12
233.22
213.00
193.12
177.82
167.79
161.25
155.54
148.21
134.37
111.98
83.02
51.51
21.55
-5.68
-29.30
-47.17
-55.62
-52.97
-39.06
-15.94
11.93
38.91
60.41
75.19
85.30
93.17
99.07
101.30
97.75
88.37
76.55
68.32
69.44
82.52
105.35
131.68
154.64
170.39
179.84
187.41
197.35
210.18
221.76
225.22
214.71
188.87
151.95
111.08
74.04
47.49
33.22
28.23
26.96
23.84
16.27
5.27
-6.21
-15.36
-21.14
-24.48
-27.28
-31.09
-38.11
-48.50
-60.51
-71.64
-80.40
-86.68
-91.80
-97.68
-106.37
-123.61
-153.34
-195.70
-247.05
-300.93
-348.13
-377.99
-380.69
-351.00
-296.76
-231.07
-167.85
-119.15
-93.74
-95.10
-120.85
-163.70
-213.42
-266.24
-315.57
-351.54
-366.06
-358.75
-337.71
-315.43
-303.32
-263.76
-183.14
-75.52
33.18
127.34
202.30
257.30
293.22
312.09
322.26
323.35
318.35
315.30
323.38
347.53
388.11
440.24
495.30
543.49
568.55
560.87
521.30
458.62
384.31
309.54
243.37
191.63
156.39
129.05
103.67
80.76
63.84
54.36
50.89
50.31
49.81
47.89
35.41
10.28
-20.26
-47.05
-66.40
-80.38
-93.68
-110.85
-134.65
-177.62
-241.97
-316.35
-386.04
-443.69
-489.44
-526.70
-559.09
-589.41
-634.45
-700.05
-775.48
-844.21
-895.31
-923.52
-925.95
-901.74
-760.72
-497.88
-197.43
49.44
211.82
304.10
352.19
376.93
390.12
396.73
383.69
348.01
302.77
264.93
242.40
233.69
233.77
237.27
240.79
231.63
206.65
175.54
150.52
137.20
134.17
137.83
144.43
151.64
151.46
141.75
127.92
116.78
111.62
111.55
115.03
119.99
125.54
128.59
129.95
135.55
147.56
167.59
192.92
218.00
234.40
234.92
215.67
178.86
131.72
82.12
36.15
-8.35
-47.73
-77.37
-94.01
-96.87
-88.02
-71.84
-54.55
-40.49
-32.33
-28.97
-29.27
-31.72
-35.09
-39.42
-45.08
-53.20
-62.71
-72.70
-77.01
-73.44
-65.04
-52.37
-37.79
-25.10
-19.75
-23.49
-37.26
-56.82
-75.20
-84.05
-76.66
-51.69
-8.61
38.05
79.47
105.22
107.65
82.92
33.22
-32.76
-101.83
-158.11
-189.66
-190.35
-162.78
-113.89
-52.74
12.44
73.68
116.02
130.67
119.60
91.70
55.34
18.80
-12.00
-33.96
-47.07
-53.33
-53.24
-47.86
-38.93
-29.94
-23.03
-22.44
-31.76
-49.94
-70.38
-85.88
-93.75
-96.81
-100.11
-102.89
-100.70
-87.64
-61.42
-24.03
17.25
52.28
73.06
78.26
78.15
86.05
112.43
153.02
202.72
254.14
299.84
335.24
336.35
296.65
230.11
158.56
94.57
40.41
-6.81
-49.42
-87.36
-118.83
-138.17
-143.39
-138.08
-130.04
-125.51
-128.05
-137.81
-151.75
-165.14
-170.45
-162.76
-141.95
-112.17
-78.83
-48.36
-27.71
-23.27
-38.82
-71.41
-113.28
-154.33
-185.33
-200.36
-195.48
-172.01
-137.30
-101.49
-71.86
-51.14
-38.21
-30.17
-24.04
-17.89
-9.06
3.32
18.41
35.96
56.71
81.40
110.00
141.94
176.35
215.59
259.16
302.92
342.04
373.84
397.77
414.49
424.95
430.24
435.47
441.72
445.02
439.44
420.98
388.14
341.86
285.27
194.85
75.71
-43.40
-134.23
-189.24
-216.50
-227.19
-228.11
-222.15
-211.05
-192.85
-171.06
-153.93
-149.35
-160.18
-184.79
-218.89
-258.35
-296.63
-324.15
-334.01
-324.07
-297.15
-258.91
-217.16
-178.34
-144.81
-114.49
-80.62
-38.26
12.69
67.29
119.76
158.63
173.72
165.77
145.72
125.49
109.72
101.00
94.21
88.40
86.11
92.12
110.45
138.67
170.49
197.17
211.34
209.31
193.88
172.03
153.02
144.38
148.23
160.61
173.67
179.46
172.28
151.13
118.58
79.86
40.62
4.72
-26.37
-53.14
-76.82
-99.00
-120.96
-143.95
-168.35
-193.36
-217.05
-237.12
-252.02
-261.77
-268.30
-274.52
-283.35
-296.79
-315.78
-340.56
-370.55
-403.59
-434.90
-457.51
-464.07
-449.99
-415.96
-368.04
-315.22
-265.60
-223.56
-188.93
-158.70
-129.81
-100.94
-72.82
-46.83
-23.26
-0.61
23.84
52.70
87.60
128.49
173.42
218.37
257.54
284.31
293.10
281.78
253.31
215.81
179.93
155.28
146.82
153.70
170.56
190.41
207.50
218.59
222.46
218.27
204.63
179.78
143.24
97.32
47.68
2.28
-30.96
-46.84
-44.51
-27.50
-1.97
25.79
51.26
72.57
89.91
104.17
116.01
125.29
131.49
134.22
133.52
129.61
122.64
112.46
98.67
81.13
60.09
36.32
10.72
-15.72
-41.97
-66.71
-88.24
-104.96
-115.74
-120.51
-120.15
-116.27
-110.42
-103.67
-96.42
-88.80
-81.02
-73.36
-66.12
-59.29
-52.67
-45.88
-38.81
-31.62
-24.68
-18.48
-13.09
-8.43
-4.18
-0.10
3.92
7.80
11.58
15.51
19.88
24.84
30.24
35.67
40.65
44.96
48.58
51.64
54.24
56.18
57.21
57.09
55.87
53.79
50.94
47.10
41.61
33.94
23.99
12.57
1.12
-8.82
-16.21
-20.89
-23.24
-23.80
-22.68
-19.61
-14.22
-6.57
2.54
11.66
19.13
23.53
24.06
20.74
14.27
5.96
-2.41
-8.71
-10.77
-6.85
3.68
19.77
38.81
57.18
71.41
79.35
80.77
77.08
70.47
62.69
54.41
45.20
34.11
20.55
4.63
-12.86
-30.80
-48.07
-63.64
-76.60
-86.09
-91.47
-92.66
-90.37
-85.92
-80.85
-76.31
-72.62
-69.45
-66.07
-61.88
-56.61
-50.49
-43.84
-36.89
-29.81
-22.75
-16.11
-10.44
-6.38
-4.19
-3.49
-3.23
-1.97
1.49
7.69
16.12
25.53
34.35
41.09
45.00
46.02
44.65
41.68
38.11
34.73
32.26
31.10
31.08
31.62
31.92
31.27
29.41
26.85
24.31
22.60
22.14
22.71
23.68
24.33
24.19
23.05
21.18
18.86
16.33
13.69
10.91
7.96
4.90
1.88
-0.81
-2.76
-3.60
-2.91
-0.34
4.24
10.81
18.93
27.72
36.16
43.15
47.73
49.48
48.53
45.30
40.53
35.01
29.32
23.90
19.06
14.91
11.51
8.91
6.95
5.32
3.71
1.73
-0.89
-4.24
-8.30
-12.77
-17.30
-21.57
-25.42
-28.89
-32.18
-35.60
-39.37
-43.67
-48.32
-52.92
-56.85
-59.42
-60.15
-58.93
-55.97
-51.66
-46.51
-40.86
-34.97
-29.03
-23.22
-17.76
-12.94
-8.89
-5.53
-2.80
-0.66
0.78
1.38
1.16
0.36
-0.59
-1.13
-0.76
0.70
3.07
5.90
8.55
10.57
11.58
11.52
10.57
9.11
7.48
6.03
4.92
4.16
3.79
3.83
4.42
5.59
7.33
9.31
11.13
12.37
12.80
12.57
12.09
11.88
12.38
13.73
15.77
18.16
20.56
22.70
24.41
25.68
26.55
27.04
27.07
26.51
25.19
23.05
20.22
17.02
13.86
11.18
9.17
7.69
6.37
4.68
2.22
-1.18
-5.30
-9.75
-14.05
-17.86
-20.95
-23.31
-25.04
-26.42
-27.84
-29.73
-32.32
-35.74
-39.71
-43.70
-47.15
-49.70
-51.30
-52.18
-52.68
-52.95
-53.01
-52.74
-51.84
-50.01
-47.13
-43.22
-38.63
-33.99
-30.03
-27.29
-25.90
-25.41
-24.98
-23.72
-20.98
-16.66
-11.07
-4.78
1.68
7.89
13.59
18.51
22.45
25.24
26.79
27.12
26.47
25.06
23.12
20.83
18.24
15.35
12.30
9.15
6.01
3.03
0.28
-2.20
-4.28
-5.71
-6.28
-5.71
-3.98
-1.42
1.38
3.60
4.53
3.72
1.26
-2.42
-6.57
-10.44
-13.46
-15.34
-16.14
-16.12
-15.71
-15.31
-15.30
-15.82
-16.80
-17.94
-18.84
-19.21
-18.89
-17.94
-16.58
-15.16
-13.87
-12.84
-12.08
-11.49
-10.95
-10.39
-9.82
-9.29
-8.98
-8.99
-9.35
-9.95
-10.65
-11.19
-11.43
-11.36
-11.08
-10.73
-10.36
-10.04
-9.85
-9.96
-10.58
-11.82
-13.62
-15.71
-17.73
-19.39
-20.65
-21.52
-21.91
-21.59
-20.09
-17.06
-12.46
-6.75
-0.77
4.59
8.67
11.23
12.24
11.88
10.44
8.31
5.93
3.77
2.22
1.32
0.81
0.07
-1.37
-3.71
-6.57
-9.22
-11.00
-11.65
-11.47
-11.25
-11.88
-13.68
-16.51
-19.61
-22.04
-23.20
-22.91
-21.31
-18.80
-15.72
-12.22
-8.43
-4.31
0.60
7.26
17.15
31.60
50.80
72.94
94.18
109.62
114.97
108.37
90.96
66.59
40.01
15.26
-5.37
-21.34
-33.15
-41.50
-46.66
-48.76
-47.97
-44.97
-40.84
-36.68
-33.06
-29.80
-25.82
-19.61
-9.91
3.69
20.44
38.60
55.80
69.78
78.83
82.29
80.53
74.68
66.30
57.00
47.99
39.96
33.02
26.97
21.59
16.85
12.80
9.44
6.60
3.74
0.25
-4.32
-9.96
-16.27
-22.54
-28.26
-33.08
-36.98
-39.99
-41.99
-42.71
-41.76
-38.98
-34.51
-28.93
-22.98
-17.35
-12.35
-7.95
-3.88
0.06
3.82
7.07
9.30
10.18
9.67
8.04
5.71
3.03
0.29
-2.33
-4.49
-5.84
-6.09
-5.23
-3.73
-2.30
-1.79
-2.65
-4.83
-7.71
-10.46
-12.39
-13.23
-13.20
-12.67
-12.09
-11.63
-11.40
-11.36
-11.49
-11.84
-12.50
-13.51
-14.87
-16.52
-18.33
-20.34
-22.46
-24.58
-26.39
-27.51
-27.42
-25.69
-22.06
-16.56
-9.53
-1.60
6.49
13.91
20.02
24.48
27.22
28.43
28.51
27.87
26.96
26.28
26.38
27.96
31.44
36.81
43.37
49.98
55.30
58.28
58.29
55.24
49.37
41.10
30.92
19.55
7.96
-2.72
-11.44
-17.57
-21.15
-22.82
-23.58
-24.45
-26.03
-28.45
-31.35
-34.05
-35.74
-35.61
-33.00
-27.46
-18.98
-8.15
3.72
14.80
23.19
27.53
27.42
23.46
17.03
9.75
3.00
-2.40
-6.19
-8.45
-9.45
-9.46
-8.74
-7.51
-5.97
-4.19
-2.27
-0.31
1.69
3.65
5.57
7.30
8.63
9.26
8.86
7.39
5.06
2.41
0.11
-1.28
-1.61
-1.08
-0.13
0.67
0.99
0.63
-0.38
-1.98
-4.02
-6.34
-8.74
-10.97
-12.79
-14.05
-14.77
-15.02
-15.08
-15.23
-15.71
-16.83
-18.73
-21.42
-24.67
-27.95
-30.47
-31.43
-30.27
-26.95
-22.05
-16.54
-11.57
-7.89
-5.82
-5.03
-4.75
-4.13
-2.43
0.60
4.78
9.54
14.23
18.28
21.47
23.78
25.43
26.68
27.74
28.69
29.50
30.13
30.51
30.61
30.29
29.40
27.82
25.40
22.16
18.21
13.84
9.44
5.46
2.17
-0.32
-2.10
-3.41
-4.44
-5.35
-6.21
-7.13
-8.21
-9.62
-11.27
-12.89
-13.94
-13.82
-12.08
-8.65
-3.87
1.62
7.10
11.96
15.73
18.05
18.80
18.04
16.01
13.16
9.95
6.80
4.02
1.84
0.37
-0.16
0.42
2.21
5.13
8.87
12.98
16.95
20.31
22.63
23.55
22.68
19.76
14.71
7.80
-0.31
-8.81
-16.87
-23.89
-29.61
-34.13
-37.77
-40.94
-44.08
-47.46
-51.17
-55.15
-59.10
-62.48
-64.75
-65.45
-64.31
-61.40
-56.84
-50.81
-43.34
-34.30
-23.45
-10.53
4.62
22.15
41.93
63.51
85.90
107.56
126.56
140.97
149.45
151.54
147.74
139.17
127.24
113.39
98.87
84.71
71.49
59.36
48.03
36.98
25.72
14.19
2.81
-7.80
-17.04
-24.68
-30.88
-35.97
-40.36
-44.47
-48.67
-53.24
-58.34
-63.84
-69.20
-73.82
-77.08
-78.80
-79.23
-78.93
-78.49
-78.24
-78.09
-77.70
-76.58
-74.22
-70.16
-64.04
-55.61
-45.05
-33.03
-20.67
-9.35
-0.35
5.66
8.67
9.31
8.58
7.41
6.50
6.32
7.06
8.67
10.94
13.46
15.65
17.06
17.41
16.86
15.89
14.96
14.31
13.69
12.48
10.01
6.06
0.83
-4.94
-10.45
-15.16
-18.93
-21.98
-24.77
-27.75
-31.19
-35.25
-39.79
-44.46
-48.64
-51.50
-52.27
-50.60
-46.65
-41.02
-34.53
-27.79
-21.04
-14.17
-6.93
0.69
8.14
14.56
18.97
20.74
19.98
17.52
14.70
13.02
13.50
16.35
20.86
25.63
29.19
30.57
29.71
27.36
24.82
23.17
22.95
24.00
25.66
27.28
28.48
29.20
29.70
30.48
32.30
36.21
43.43
54.81
70.02
87.06
102.38
111.90
112.48
103.17
85.53
62.80
38.63
15.81
-4.05
-20.21
-32.17
-39.25
-40.72
-36.38
-27.09
-14.65
-1.46
10.35
19.41
25.25
28.07
28.39
26.60
22.95
17.69
11.14
3.95
-3.01
-8.85
-12.94
-15.14
-15.98
-16.45
-17.63
-20.40
-24.98
-30.89
-37.07
-42.21
-45.17
-45.45
-43.18
-39.06
-34.10
-29.13
-24.72
-21.15
-18.54
-16.88
-16.25
-16.63
-17.92
-19.80
-21.89
-23.82
-25.43
-26.85
-28.41
-30.61
-33.83
-38.17
-43.26
-48.26
-52.03
-53.55
-52.26
-48.14
-41.55
-33.14
-23.51
-13.13
-2.48
7.81
16.87
23.73
27.60
28.05
25.24
19.90
13.56
8.47
7.66
14.25
30.50
56.67
90.23
126.12
158.13
180.69
190.64
187.92
175.24
156.57
135.77
115.47
96.84
80.11
65.14
51.85
40.33
30.53
21.90
13.52
4.25
-6.60
-18.76
-31.06
-41.89
-49.88
-54.44
-56.11
-55.99
-55.30
-54.92
-55.12
-55.80
-56.66
-57.37
-57.62
-57.11
-55.54
-52.78
-48.84
-43.95
-38.47
-32.71
-26.87
-21.09
-15.47
-10.20
-5.57
-1.90
0.57
1.72
1.71
0.81
-0.65
-2.36
-4.10
-5.77
-7.34
-8.81
-10.19
-11.40
-12.34
-13.08
-13.75
-14.66
-16.11
-18.14
-20.47
-22.57
-23.80
-23.68
-22.10
-19.22
-15.31
-10.59
-5.13
1.02
7.67
14.46
21.03
27.02
32.28
36.81
40.57
43.51
45.67
47.18
48.31
49.36
50.36
50.93
50.28
47.48
41.80
32.98
21.40
7.96
-6.09
-19.44
-30.88
-39.53
-45.00
-47.37
-47.22
-45.55
-43.51
-42.26
-42.62
-44.75
-48.08
-51.42
-53.33
-52.48
-48.11
-39.95
-28.35
-14.15
1.46
17.16
31.63
43.75
52.92
58.91
61.80
61.76
58.78
52.91
44.34
33.57
21.41
8.89
-3.15
-14.14
-23.87
-32.53
-40.31
-47.35
-53.50
-58.25
-60.69
-59.77
-54.57
-44.61
-30.33
-13.14
4.63
20.30
31.50
36.88
36.32
30.78
21.77
10.58
-1.89
-15.33
-29.53
-43.95
-57.60
-69.12
-77.04
-80.12
-77.49
-68.65
-53.54
-32.90
-8.40
17.18
40.41
58.24
68.73
71.68
68.33
60.76
50.88
39.97
28.66
17.35
6.58
-2.99
-10.85
-16.92
-21.35
-24.12
-24.64
-21.72
-14.09
-1.30
15.57
33.91
50.32
61.91
67.26
66.72
61.83
54.28
45.16
34.74
22.97
10.24
-2.52
-13.92
-22.91
-29.23
-33.59
-37.18
-40.98
-45.32
-49.79
-53.71
-56.56
-58.27
-59.13
-59.67
-60.37
-61.36
-62.49
-63.10
-62.19
-58.55
-51.03
-38.95
-22.52
-2.96
17.67
36.96
52.83
63.89
69.70
70.54
67.04
59.88
49.73
37.51
24.39
11.80
1.11
-6.84
-12.01
-15.16
-17.53
-20.28
-23.97
-28.44
-32.80
-35.76
-36.05
-32.67
-25.29
-14.30
-0.82
13.53
26.98
37.96
45.45
49.19
49.55
47.43
43.94
40.05
36.42
33.30
30.58
27.97
25.22
22.07
18.44
14.43
10.12
5.69
1.38
-2.62
-6.17
-9.40
-12.76
-16.84
-21.96
-27.95
-33.94
-38.63
-40.72
-39.44
-34.91
-28.16
-20.83
-14.45
-10.03
-7.82
-7.52
-8.53
-10.39
-13.06
-16.86
-22.29
-29.56
-38.32
-47.29
-54.48
-57.51
-54.16
-43.11
-24.39
0.54
28.90
57.08
81.50
99.35
109.19
111.20
106.83
98.03
86.40
72.70
56.98
39.21
20.05
1.27
-14.55
-24.80
-27.71
-23.16
-12.45
2.17
18.17
33.36
45.89
54.23
57.03
53.28
42.25
23.88
-1.15
-31.20
-63.60
-94.64
-119.98
-135.31
-137.46
-125.45
-101.10
-68.88
-34.69
-4.19
18.61
32.20
37.31
35.97
30.40
22.24
12.32
1.12
-10.60
-21.60
-30.28
-35.26
-36.06
-33.41
-28.82
-24.09
-20.46
-18.17
-16.57
-14.54
-11.03
-5.56
1.63
9.68
17.35
23.25
26.20
25.41
20.78
13.04
3.42
-6.52
-15.37
-22.23
-26.67
-28.68
-28.47
-26.39
-22.85
-18.51
-14.07
-10.00
-6.26
-2.00
3.99
12.71
24.21
37.34
50.01
59.87
65.21
65.35
60.86
52.99
43.37
33.42
24.28
16.71
11.16
7.76
6.30
6.33
7.18
8.17
8.72
8.57
7.71
6.38
4.89
3.43
2.03
0.49
-1.51
-4.10
-7.15
-10.34
-13.12
-15.01
-15.81
-15.59
-14.74
-13.75
-13.06
-12.82
-12.99
-13.30
-13.56
-13.80
-14.30
-15.45
-17.47
-20.37
-23.82
-27.43
-30.83
-33.80
-36.26
-38.01
-38.68
-37.65
-34.40
-28.67
-20.83
-11.64
-2.22
6.29
12.98
17.28
19.07
18.76
17.42
16.61
18.15
23.54
33.21
46.14
59.61
69.96
73.52
68.09
53.67
32.64
9.04
-12.75
-29.33
-39.12
-42.39
-40.76
-36.25
-30.55
-24.67
-18.97
-13.66
-8.96
-5.37
-3.42
-3.51
-5.66
-9.46
-14.16
-18.81
-22.40
-23.76
-21.67
-15.28
-4.74
8.29
20.68
28.73
29.68
22.83
10.02
-5.21
-19.04
-28.79
-33.47
-33.51
-29.87
-23.35
-14.53
-4.04
7.01
16.89
23.92
26.99
26.13
22.41
17.45
12.75
9.29
7.19
5.99
5.12
4.11
2.93
1.88
1.47
2.10
3.89
6.58
9.61
12.34
14.19
14.79
14.11
12.34
9.78
6.75
3.52
0.35
-2.47
-4.75
-6.48
-7.78
-9.03
-10.66
-12.97
-15.97
-19.31
-22.38
-24.72
-26.14
-26.87
-27.48
-28.54
-30.29
-32.59
-34.88
-36.33
-36.05
-33.05
-26.46
-15.86
-1.65
14.64
30.38
42.58
48.79
48.12
41.46
30.97
19.06
7.66
-2.15
-9.88
-15.14
-17.45
-16.45
-12.44
-6.57
-0.59
3.94
6.33
7.01
7.20
8.09
10.07
12.55
14.12
13.16
8.66
0.56
-9.91
-20.08
-26.61
-26.22
-17.00
0.68
23.75
47.20
65.41
74.06
71.63
59.53
41.55
22.22
5.25
-7.47
-15.95
-21.35
-25.06
-27.80
-29.57
-29.82
-28.14
-24.64
-19.83
-14.29
-8.26
-1.46
6.66
16.44
27.79
40.17
52.75
64.92
76.40
86.94
96.08
102.94
106.28
105.02
98.67
87.54
72.70
55.55
37.55
19.94
3.79
-9.92
-20.26
-26.57
-28.77
-27.52
-24.21
-20.51
-17.89
-17.30
-19.01
-22.74
-27.97
-34.21
-41.04
-48.05
-54.78
-60.58
-64.77
-66.85
-66.70
-64.50
-60.77
-56.08
-50.88
-45.50
-40.24
-35.35
-31.19
-28.03
-26.00
-24.98
-24.57
-24.23
-23.38
-21.36
-17.65
-11.93
-4.29
4.68
13.88
21.98
27.82
30.75
30.82
28.70
25.35
21.93
19.53
19.19
21.96
28.63
39.14
52.08
64.74
73.64
75.83
70.25
58.13
42.65
27.44
15.12
6.49
0.88
-2.94
-5.64
-7.04
-6.49
-3.73
0.59
5.04
8.23
9.58
9.53
9.31
10.01
11.97
14.70
17.02
17.74
16.10
11.94
5.53
-2.62
-12.01
-22.27
-33.05
-44.03
-54.68
-64.30
-71.89
-76.46
-77.28
-74.17
-67.79
-59.30
-49.99
-40.81
-32.13
-23.80
-15.54
-7.21
1.05
8.78
15.63
21.37
25.98
29.56
32.14
33.63
33.81
32.46
29.50
25.21
20.16
15.12
10.83
7.75
5.95
5.08
4.61
4.07
3.29
2.45
1.78
1.53
1.72
2.12
2.39
2.19
1.32
-0.21
-2.18
-4.42
-6.72
-8.98
-11.10
-12.87
-13.96
-14.14
-13.50
-12.54
-12.03
-12.64
-14.59
-17.49
-20.53
-22.93
-24.33
-24.92
-25.21
-25.53
-25.83
-25.73
-24.86
-23.13
-20.90
-18.72
-17.03
-15.93
-15.26
-14.79
-14.41
-14.25
-14.37
-14.82
-15.28
-15.32
-14.51
-12.65
-9.89
-6.70
-3.68
-1.40
-0.26
-0.31
-1.35
-2.94
-4.58
-5.83
-6.37
-6.01
-4.75
-2.75
-0.19
2.71
5.85
9.23
12.92
16.88
20.93
24.63
27.41
28.85
28.62
26.74
23.58
19.71
15.95
13.05
11.56
11.72
13.38
15.95
18.71
20.95
22.24
22.52
21.91
20.65
18.92
16.79
14.25
11.33
8.19
5.09
2.40
0.42
-0.70
-1.04
-0.78
-0.22
0.48
1.25
2.05
2.99
4.07
5.13
5.93
6.20
5.81
4.86
3.58
2.21
0.87
-0.47
-2.01
-3.92
-6.27
-8.98
-11.88
-14.82
-17.78
-20.88
-24.23
-27.83
-31.48
-34.88
-37.68
-39.67
-40.84
-41.37
-41.41
-40.93
-39.65
-37.01
-32.55
-26.02
-17.58
-7.85
2.34
12.10
20.69
27.65
32.80
36.17
38.03
38.78
38.85
38.68
38.63
38.89
39.52
40.43
41.40
42.29
43.10
43.94
45.04
46.50
48.28
50.14
51.70
52.58
52.60
51.77
50.21
48.31
46.41
44.86
43.80
42.94
41.44
38.18
32.03
22.34
9.39
-5.72
-21.34
-35.76
-47.68
-56.56
-62.31
-65.38
-66.36
-65.85
-64.44
-62.59
-60.57
-58.41
-55.91
-52.69
-48.47
-43.15
-36.88
-30.09
-23.31
-17.03
-11.56
-7.06
-3.52
-0.96
0.59
1.25
1.20
0.78
0.39
0.40
1.01
2.26
4.01
6.11
8.50
11.10
13.86
16.67
19.34
21.62
23.26
24.00
23.73
22.53
20.57
18.17
15.60
12.98
10.27
7.34
4.05
0.38
-3.48
-7.24
-10.58
-13.24
-15.13
-16.40
-17.29
-18.10
-19.12
-20.57
-22.53
-24.91
-27.49
-29.89
-31.65
-32.32
-31.59
-29.42
-25.98
-21.64
-16.78
-11.70
-6.69
-2.04
1.99
5.11
7.12
8.01
7.97
7.41
6.75
6.38
6.48
7.12
8.22
9.63
11.17
12.69
14.11
15.35
16.38
17.17
17.59
17.54
16.98
15.94
14.56
13.00
11.41
9.89
8.39
6.79
4.93
2.74
0.23
-2.45
-5.16
-7.73
-10.08
-12.25
-14.44
-16.91
-19.84
-23.26
-26.93
-30.41
-33.14
-34.52
-34.10
-31.66
-27.25
-21.18
-14.02
-6.48
0.77
7.07
12.08
15.63
17.84
18.94
19.20
18.91
18.29
17.58
16.91
16.40
16.03
15.78
15.65
15.65
15.89
16.40
17.23
18.25
19.26
19.93
19.95
19.10
17.30
14.62
11.29
7.72
4.29
1.32
-1.10
-3.17
-5.29
-7.77
-10.69
-13.80
-16.52
-18.30
-18.87
-18.46
-17.79
-17.70
-18.83
-21.22
-24.43
-27.48
-29.33
-29.17
-26.72
-22.21
-16.26
-9.62
-2.98
3.13
8.32
12.38
15.29
17.08
17.95
18.13
18.00
17.85
17.95
18.40
19.17
20.23
21.42
22.67
23.90
25.13
26.43
27.84
29.25
30.39
30.89
30.42
28.96
26.68
23.98
21.31
18.88
16.59
14.10
11.01
6.97
1.88
-4.30
-11.55
-19.82
-29.06
-39.05
-49.43
-59.55
-68.63
-75.81
-80.30
-81.60
-79.54
-74.49
-67.22
-58.84
-50.46
-42.85
-36.30
-30.51
-24.82
-18.48
-11.09
-2.67
6.33
15.16
23.13
29.74
34.75
38.18
40.19
40.94
40.58
39.33
37.39
35.04
32.64
30.48
28.74
27.42
26.37
25.26
23.79
21.87
19.70
17.72
16.49
16.40
17.52
19.49
21.65
23.27
23.90
23.40
21.98
20.04
17.87
15.63
13.40
11.34
9.59
8.47
8.07
8.27
8.71
8.91
8.57
7.57
6.06
4.14
1.92
-0.65
-3.52
-6.47
-9.15
-11.13
-11.97
-11.45
-9.68
-7.05
-4.17
-1.66
0.06
0.92
1.08
0.96
0.81
0.67
0.33
-0.52
-2.08
-4.25
-6.67
-8.98
-10.89
-12.56
-14.35
-16.72
-19.93
-23.80
-27.73
-30.94
-32.78
-32.97
-31.83
-30.04
-28.33
-27.42
-27.65
-28.98
-31.09
-33.21
-34.14
-32.39
-26.43
-15.13
1.45
21.83
43.24
62.23
75.71
81.81
80.32
72.51
60.76
47.58
35.23
25.18
18.19
14.31
13.02
13.43
14.48
15.36
15.49
14.82
13.61
12.32
11.46
11.46
12.41
14.17
16.28
18.05
18.81
18.13
16.05
13.05
9.88
7.13
5.02
3.39
1.89
0.26
-1.53
-3.41
-5.23
-6.96
-8.70
-10.60
-12.69
-15.02
-17.53
-20.12
-22.65
-24.77
-26.01
-25.81
-23.80
-19.92
-14.69
-8.85
-3.20
1.65
5.39
8.02
9.61
10.31
10.15
9.17
7.54
5.57
3.59
1.93
0.74
-0.04
-0.52
-0.92
-1.32
-1.71
-1.95
-1.98
-1.75
-1.31
-0.73
-0.11
0.39
0.66
0.54
0.02
-0.95
-2.22
-3.60
-4.81
-5.53
-5.43
-4.13
-1.32
3.17
9.11
15.75
21.92
26.24
27.65
25.67
20.55
12.92
3.53
-6.90
-17.72
-28.02
-36.61
-42.07
-43.25
-39.70
-32.00
-21.67
-10.55
-0.30
8.09
14.31
18.61
21.37
22.96
23.53
23.10
21.75
19.66
17.17
14.71
12.65
11.15
10.18
9.43
8.58
7.43
5.96
4.34
2.80
1.52
0.49
-0.35
-1.13
-1.99
-2.96
-4.10
-5.42
-6.98
-8.75
-10.73
-12.83
-14.92
-16.86
-18.49
-19.73
-20.57
-21.07
-21.37
-21.67
-22.16
-23.00
-24.21
-25.64
-27.14
-28.44
-29.43
-30.09
-30.41
-30.28
-29.39
-27.30
-23.62
-18.26
-11.55
-4.13
3.19
9.76
15.25
19.73
23.38
26.36
28.67
30.19
30.82
30.64
29.96
29.13
28.43
27.93
27.42
26.64
25.40
23.74
21.89
20.22
18.92
18.02
17.42
16.88
16.31
15.69
15.10
14.59
14.20
13.79
13.15
12.13
10.53
8.31
5.45
2.12
-1.46
-4.99
-8.26
-11.18
-13.76
-16.20
-18.59
-20.91
-22.99
-24.47
-24.99
-24.39
-22.67
-20.05
-17.02
-13.99
-11.34
-9.29
-7.87
-6.88
-6.09
-5.18
-4.03
-2.74
-1.55
-0.74
-0.49
-0.69
-1.02
-1.15
-0.89
-0.21
0.66
1.67
2.81
4.12
5.71
7.54
9.40
10.98
11.95
12.07
11.41
10.15
8.64
7.23
6.10
5.26
4.52
3.64
2.43
0.85
-1.07
-3.20
-5.50
-8.01
-10.83
-14.06
-17.64
-21.42
-25.14
-28.46
-31.15
-32.89
-33.46
-32.65
-30.33
-26.54
-21.54
-15.82
-10.03
-4.70
-0.13
3.57
6.54
8.84
10.43
11.17
10.95
9.84
8.21
6.53
5.29
4.78
5.08
5.95
6.98
7.67
7.56
6.34
3.95
0.68
-2.98
-6.32
-8.77
-10.00
-10.00
-9.03
-7.49
-5.74
-3.99
-2.23
-0.37
1.65
3.76
5.70
7.10
7.66
7.25
6.15
4.81
3.64
2.83
2.21
1.46
0.19
-1.68
-4.04
-6.55
-8.81
-10.52
-11.41
-11.25
-9.76
-6.77
-2.30
3.32
9.47
15.37
20.21
23.41
24.58
23.65
20.85
16.65
11.66
6.55
1.86
-2.08
-5.07
-7.10
-8.12
-8.06
-6.89
-4.70
-1.82
1.24
3.87
5.59
6.14
5.68
4.58
3.23
1.93
0.75
-0.39
-1.60
-3.03
-4.71
-6.67
-8.83
-11.13
-13.42
-15.52
-17.31
-18.78
-20.10
-21.55
-23.43
-25.77
-28.32
-30.52
-31.78
-31.60
-29.78
-26.43
-21.94
-16.80
-11.47
-6.33
-1.59
2.53
5.93
8.61
10.67
12.30
13.68
14.91
15.94
16.62
16.79
16.43
15.62
14.70
14.04
13.95
14.48
15.49
16.65
17.59
18.02
17.79
16.90
15.47
13.60
11.36
8.81
6.05
3.24
0.53
-1.92
-4.14
-6.27
-8.59
-11.25
-14.31
-17.65
-21.03
-24.26
-27.29
-30.15
-32.98
-35.80
-38.30
-39.97
-40.25
-38.71
-35.24
-30.06
-23.63
-16.48
-9.06
-1.73
5.25
11.50
16.74
20.74
23.48
25.10
25.91
26.17
26.06
25.67
24.98
24.03
22.93
21.85
20.94
20.32
20.03
20.04
20.23
20.47
20.65
20.64
20.35
19.69
18.48
16.66
14.15
10.89
7.00
2.65
-1.85
-6.21
-10.09
-13.32
-15.78
-17.48
-18.60
-19.43
-20.22
-21.27
-22.81
-24.92
-27.54
-30.36
-32.89
-34.48
-34.55
-32.69
-28.89
-23.54
-17.32
-11.00
-5.25
-0.52
3.05
5.63
7.43
8.73
9.73
10.51
11.08
11.49
11.74
11.93
12.20
12.62
13.24
14.06
15.04
16.01
16.86
17.38
17.46
17.01
15.98
14.41
12.35
9.93
7.19
4.24
1.24
-1.67
-4.30
-6.49
-8.04
-8.89
-9.04
-8.64
-7.95
-7.34
-7.25
-8.01
-9.80
-12.44
-15.48
-18.19
-19.75
-19.53
-17.28
-13.20
-7.81
-1.85
3.99
9.11
13.21
16.21
18.09
18.93
18.80
17.85
16.29
14.43
12.63
11.20
10.50
10.68
11.80
13.72
16.09
18.47
20.39
21.44
21.38
20.16
17.88
14.81
11.29
7.71
4.36
1.50
-0.90
-2.98
-5.00
-7.21
-9.71
-12.40
-15.12
-17.69
-19.98
-22.00
-23.82
-25.51
-27.17
-28.74
-29.97
-30.53
-29.92
-27.74
-23.72
-17.92
-10.79
-3.04
4.55
11.24
16.60
20.53
23.22
25.15
26.80
28.59
30.63
32.90
35.04
36.59
36.98
35.81
32.93
28.66
23.73
18.97
15.06
12.23
10.20
8.33
5.98
2.81
-1.09
-5.19
-8.98
-12.10
-14.57
-16.70
-18.76
-20.96
-23.24
-25.47
-27.48
-29.25
-30.95
-32.82
-35.12
-37.78
-40.47
-42.54
-43.34
-42.29
-39.15
-34.02
-27.36
-19.86
-12.13
-4.71
2.06
7.96
12.81
16.42
18.50
18.88
17.50
14.64
10.70
6.26
1.90
-1.87
-4.70
-6.51
-7.43
-7.66
-7.40
-6.79
-5.80
-4.31
-2.33
-0.03
2.18
3.84
4.65
4.56
3.73
2.50
1.15
-0.22
-1.60
-3.05
-4.69
-6.59
-8.88
-11.62
-14.80
-18.23
-21.52
-24.14
-25.49
-25.12
-22.80
-18.68
-13.05
-6.39
0.73
7.72
14.04
19.24
23.07
25.44
26.45
26.37
25.51
24.15
22.57
20.96
19.54
18.42
17.64
17.13
16.80
16.64
16.58
16.59
16.52
16.18
15.34
13.88
11.81
9.32
6.72
4.29
2.26
0.68
-0.55
-1.61
-2.80
-4.34
-6.41
-9.08
-12.32
-15.98
-19.87
-23.70
-27.10
-29.69
-30.96
-30.55
-28.13
-23.76
-17.70
-10.52
-2.96
4.39
11.08
16.89
21.68
25.36
27.70
28.63
28.19
26.65
24.53
22.34
20.43
18.95
17.81
16.87
16.08
15.40
14.83
14.38
13.96
13.51
13.03
12.52
12.00
11.44
10.73
9.73
8.37
6.71
4.87
3.02
1.27
-0.31
-1.69
-2.89
-4.01
-5.20
-6.72
-8.89
-11.83
-15.42
-19.12
-22.17
-23.83
-23.65
-21.58
-17.99
-13.41
-8.34
-3.20
1.73
6.21
9.94
12.57
13.94
14.03
13.08
11.44
9.43
7.19
4.85
2.53
0.43
-1.11
-1.87
-1.80
-1.12
-0.05
1.24
2.82
4.84
7.35
10.22
12.99
15.20
16.46
16.68
15.94
14.43
12.30
9.68
6.73
3.65
0.70
-1.87
-4.11
-6.20
-8.38
-10.85
-13.62
-16.38
-18.76
-20.31
-20.62
-19.52
-16.99
-13.23
-8.56
-3.56
1.20
5.28
8.35
10.37
11.30
11.26
10.30
8.52
6.05
3.16
0.19
-2.43
-4.34
-5.42
-5.63
-5.17
-4.35
-3.44
-2.76
-2.63
-3.22
-4.57
-6.61
-8.99
-11.24
-12.95
-13.94
-14.51
-15.49
-17.96
-22.81
-30.36
-40.01
-50.30
-59.25
-64.78
-65.12
-59.16
-46.69
-28.30
-5.35
20.04
45.23
67.46
84.26
93.99
96.17
91.37
80.82
66.04
48.49
29.64
11.26
-4.45
-15.08
-18.60
-14.11
-2.54
13.50
30.37
44.48
53.33
55.97
52.83
45.31
35.10
23.70
12.20
1.49
-7.73
-14.85
-19.57
-22.05
-23.01
-23.46
-24.21
-25.47
-26.81
-27.46
-26.87
-25.30
-23.80
-23.86
-26.67
-32.45
-40.20
-47.82
-52.66
-52.07
-44.30
-29.11
-8.23
14.81
35.48
49.61
54.78
51.06
40.92
28.02
15.81
6.38
0.26
-3.00
-4.03
-2.99
0.30
5.93
13.38
21.47
28.69
33.74
36.11
36.08
34.43
31.95
29.20
26.32
23.23
19.93
16.57
13.53
11.23
9.91
9.38
9.25
8.89
7.76
5.54
2.18
-2.09
-6.81
-11.44
-15.47
-18.55
-20.60
-21.86
-22.82
-23.99
-25.75
-28.21
-31.20
-34.35
-37.25
-39.69
-41.61
-43.12
-44.44
-45.75
-47.03
-48.03
-48.32
-47.27
-44.51
-39.89
-33.53
-26.00
-17.90
-9.89
-2.49
3.92
9.11
13.00
15.60
17.06
17.50
17.11
15.98
14.24
12.11
9.90
7.99
6.80
6.53
7.13
8.37
9.85
11.18
12.09
12.42
12.09
11.10
9.51
7.45
5.28
3.43
2.25
1.98
2.53
3.56
4.62
5.32
5.51
5.16
4.35
3.22
1.83
0.13
-1.87
-4.21
-6.89
-9.80
-12.76
-15.58
-17.76
-18.76
-18.03
-15.21
-10.33
-3.94
3.17
10.03
15.84
20.20
23.08
24.68
25.44
25.75
26.00
26.51
27.32
28.29
28.97
28.83
27.49
24.89
21.23
16.95
12.51
8.23
4.31
0.95
-1.76
-3.71
-4.99
-6.00
-7.21
-9.11
-11.91
-15.43
-19.19
-22.64
-25.35
-27.24
-28.52
-29.52
-30.57
-31.82
-33.21
-34.65
-36.12
-37.63
-39.26
-40.98
-42.50
-43.23
-42.42
-39.41
-34.03
-26.68
-18.19
-9.61
-1.81
4.71
9.81
13.67
16.56
18.71
20.22
21.31
22.09
22.68
23.19
23.64
24.04
24.53
25.33
26.72
28.98
32.12
35.83
39.54
42.50
44.00
43.64
41.30
37.19
31.81
25.72
19.54
13.82
8.88
4.80
1.43
-1.59
-4.63
-7.88
-11.37
-14.93
-18.34
-21.55
-24.64
-27.84
-31.46
-35.70
-40.53
-45.73
-50.81
-55.10
-57.97
-58.87
-57.51
-53.89
-48.33
-41.26
-33.26
-24.77
-16.13
-7.72
0.14
7.13
12.97
17.47
20.58
22.35
23.06
22.95
22.28
21.33
20.36
19.65
19.40
19.75
20.64
21.97
23.41
24.49
24.77
24.00
22.22
19.71
16.93
14.18
11.62
9.17
6.60
3.77
0.66
-2.56
-5.61
-8.29
-10.51
-12.32
-13.90
-15.39
-16.87
-18.52
-20.47
-22.81
-25.62
-28.78
-32.03
-34.90
-36.80
-37.12
-35.55
-32.15
-27.34
-21.84
-16.35
-11.34
-7.00
-3.29
-0.05
2.79
5.22
7.12
8.32
8.81
8.67
8.07
7.24
6.34
5.47
4.78
4.40
4.42
4.88
5.69
6.54
7.14
7.17
6.41
4.89
2.70
0.02
-3.06
-6.41
-9.88
-13.16
-15.91
-17.84
-18.81
-18.82
-18.02
-16.68
-15.00
-13.06
-10.94
-8.70
-6.44
-4.40
-2.80
-1.79
-1.29
-0.97
-0.25
1.42
4.41
8.74
14.09
20.03
26.16
32.24
38.16
43.63
48.10
50.73
50.68
47.43
41.14
32.64
23.18
14.10
6.33
0.30
-3.98
-6.66
-7.90
-7.67
-5.98
-2.98
0.90
4.96
8.51
11.05
12.53
13.29
13.91
14.97
16.68
18.97
21.39
23.44
24.67
24.84
23.99
22.31
20.15
17.76
15.29
12.66
9.64
5.97
1.48
-3.72
-9.15
-14.04
-17.63
-19.42
-19.22
-17.18
-13.70
-9.22
-4.27
0.62
5.05
8.64
11.14
12.52
12.87
12.40
11.31
9.85
8.28
6.88
5.91
5.40
5.22
4.98
4.31
2.99
1.06
-1.19
-3.45
-5.40
-6.86
-7.72
-7.97
-7.58
-6.58
-5.08
-3.36
-1.81
-0.77
-0.47
-0.91
-2.00
-3.54
-5.36
-7.50
-10.13
-13.51
-17.85
-23.16
-29.27
-35.85
-42.44
-48.43
-53.15
-55.98
-56.41
-54.21
-49.56
-42.98
-35.26
-27.17
-19.44
-12.56
-6.88
-2.48
0.69
2.81
4.15
4.99
5.59
6.12
6.73
7.48
8.43
9.63
11.14
12.99
15.05
17.19
19.17
20.73
21.67
21.92
21.51
20.58
19.35
17.96
16.53
15.08
13.55
11.91
10.15
8.30
6.42
4.56
2.66
0.63
-1.66
-4.27
-7.21
-10.40
-13.86
-17.62
-21.63
-25.69
-29.28
-31.67
-32.14
-30.27
-26.09
-20.14
-13.23
-6.10
0.66
6.72
11.89
16.02
18.96
20.66
21.20
20.84
20.01
19.08
18.39
18.14
18.32
18.82
19.45
20.06
20.53
20.90
21.17
21.49
21.88
22.30
22.64
22.79
22.67
22.16
21.21
19.70
17.54
14.60
10.90
6.54
1.82
-2.88
-7.22
-10.92
-14.01
-16.72
-19.44
-22.50
-26.14
-30.30
-34.60
-38.39
-40.89
-41.38
-39.44
-35.11
-28.94
-21.80
-14.63
-8.17
-2.84
1.21
4.04
5.75
6.41
6.16
5.09
3.46
1.61
-0.09
-1.31
-1.88
-1.80
-1.25
-0.51
0.11
0.41
0.35
0.08
-0.09
0.17
1.08
2.61
4.47
6.09
6.91
6.59
5.22
3.24
1.25
-0.32
-1.41
-2.34
-3.65
-5.91
-9.42
-14.07
-19.27
-24.03
-26.94
-26.64
-22.12
-13.22
-0.96
12.66
25.22
34.54
39.34
39.54
35.93
29.76
22.32
14.62
7.44
1.43
-2.91
-5.27
-5.69
-4.59
-2.63
-0.50
1.24
2.36
2.92
3.16
3.38
3.88
4.80
6.14
7.67
9.03
9.86
9.97
9.40
8.36
7.23
6.35
6.00
6.41
7.79
10.28
13.90
18.31
22.73
26.10
27.35
25.78
21.49
15.20
7.92
0.54
-6.29
-12.18
-16.74
-19.46
-19.81
-17.46
-12.63
-6.17
0.68
6.77
11.38
14.34
15.87
16.35
16.09
15.22
13.76
11.82
9.66
7.61
6.09
5.37
5.47
6.17
7.05
7.74
8.09
8.08
7.81
7.49
7.18
6.86
6.35
5.49
4.14
2.30
0.14
-2.04
-4.01
-5.60
-6.87
-8.11
-9.57
-11.39
-13.50
-15.59
-17.31
-18.46
-19.03
-19.36
-19.86
-20.99
-22.92
-25.57
-28.53
-31.17
-32.78
-32.74
-30.71
-26.78
-21.46
-15.64
-10.34
-6.37
-4.12
-3.40
-3.42
-3.19
-1.70
1.71
7.12
14.13
22.01
29.79
36.55
41.68
44.83
46.15
46.05
45.12
44.00
43.11
42.52
41.91
40.76
38.51
34.95
30.24
24.81
19.36
14.45
10.34
7.06
4.36
1.86
-0.76
-3.69
-7.06
-10.75
-14.59
-18.48
-22.21
-25.76
-29.19
-32.56
-35.92
-39.23
-42.14
-44.17
-44.65
-43.01
-39.03
-33.08
-25.86
-18.36
-11.43
-5.56
-0.92
2.63
5.33
7.28
8.52
9.15
9.26
9.06
8.74
8.38
7.98
7.48
6.75
5.61
4.00
1.85
-0.72
-3.41
-5.88
-7.84
-9.17
-10.07
-10.90
-11.96
-13.41
-15.12
-16.68
-17.78
-18.30
-18.34
-18.14
-17.94
-17.67
-17.11
-15.89
-13.71
-10.62
-6.96
-3.50
-1.00
-0.23
-1.58
-5.10
-10.48
-17.13
-24.31
-31.23
-37.12
-41.26
-43.16
-42.65
-39.91
-35.42
-29.72
-23.24
-16.16
-8.51
-0.23
8.69
18.07
27.41
35.87
42.37
45.90
45.89
42.51
36.75
30.06
23.84
18.98
15.59
13.31
11.72
10.61
10.04
10.18
10.95
11.95
12.60
12.41
11.19
9.10
6.55
3.93
1.54
-0.63
-2.69
-4.83
-7.16
-9.72
-12.44
-15.13
-17.62
-19.77
-21.62
-23.26
-24.93
-26.83
-29.20
-32.18
-35.76
-39.58
-43.10
-45.56
-46.23
-44.49
-40.12
-33.25
-24.40
-14.25
-3.46
7.41
17.95
27.87
36.93
44.83
51.28
55.89
58.45
59.00
57.82
55.45
52.42
49.09
45.66
42.17
38.54
34.73
30.67
26.29
21.62
16.72
11.78
7.15
3.23
0.32
-1.53
-2.53
-3.03
-3.31
-3.54
-3.76
-3.97
-4.23
-4.63
-5.38
-6.65
-8.53
-11.01
-14.06
-17.69
-21.81
-26.38
-31.14
-35.72
-39.65
-42.39
-43.45
-42.50
-39.42
-34.34
-27.74
-20.29
-12.84
-6.20
-0.92
2.81
5.09
6.25
6.64
6.44
5.81
4.80
3.60
2.51
1.87
1.95
2.81
4.37
6.35
8.58
10.94
13.44
16.06
18.58
20.63
21.74
21.54
19.94
17.20
13.72
9.92
6.05
2.07
-2.10
-6.54
-11.16
-15.66
-19.63
-22.80
-25.06
-26.44
-27.24
-27.73
-28.27
-29.12
-30.46
-32.26
-34.37
-36.39
-37.71
-37.77
-36.06
-32.46
-27.22
-20.80
-13.89
-7.08
-0.83
4.61
9.07
12.48
14.77
15.90
16.00
15.30
14.19
13.07
12.21
11.71
11.53
11.50
11.41
11.21
10.87
10.50
10.14
9.73
9.17
8.44
7.57
6.69
6.01
5.61
5.49
5.41
5.06
4.18
2.72
0.78
-1.45
-3.73
-6.00
-8.32
-10.82
-13.60
-16.82
-20.52
-24.71
-29.27
-33.84
-37.83
-40.43
-40.82
-38.49
-33.46
-26.31
-17.97
-9.47
-1.60
5.10
10.53
14.81
18.12
20.62
22.38
23.49
23.97
23.96
23.61
23.20
23.04
23.26
23.79
24.45
24.96
25.15
25.07
24.91
24.89
25.05
25.17
24.87
23.77
21.70
18.76
15.34
11.88
8.72
6.01
3.68
1.57
-0.53
-2.76
-5.18
-7.64
-9.98
-12.00
-13.63
-14.96
-16.26
-17.91
-20.29
-23.58
-27.61
-31.88
-35.58
-37.82
-37.82
-35.15
-29.81
-22.26
-13.28
-3.78
5.37
13.44
19.93
24.54
27.21
28.10
27.50
25.90
23.81
21.78
20.18
19.24
18.94
19.17
19.76
20.60
21.61
22.74
23.85
24.77
25.33
25.36
24.90
24.04
22.90
21.46
19.61
17.18
14.12
10.50
6.57
2.68
-0.86
-3.83
-6.19
-7.95
-9.24
-10.11
-10.71
-11.17
-11.63
-12.16
-12.79
-13.52
-14.40
-15.61
-17.42
-20.08
-23.65
-27.84
-31.91
-34.88
-35.73
-33.81
-29.00
-21.75
-12.91
-3.50
5.60
13.67
20.27
25.13
28.17
29.49
29.28
27.94
25.97
23.85
21.99
20.61
19.77
19.32
19.06
18.79
18.45
18.18
18.16
18.62
19.66
21.16
22.78
24.11
24.73
24.35
22.94
20.58
17.50
14.01
10.37
6.82
3.51
0.43
-2.50
-5.42
-8.47
-11.60
-14.51
-16.66
-17.39
-16.16
-12.80
-7.60
-1.43
4.41
8.51
9.75
7.48
1.82
-6.49
-16.24
-25.95
-34.21
-39.77
-41.70
-39.48
-33.22
-23.62
-12.04
-0.21
10.31
18.36
23.48
25.86
26.12
24.93
22.86
20.28
17.46
14.73
12.44
10.99
10.68
11.55
13.35
15.68
17.99
19.77
20.65
20.35
18.86
16.40
13.33
10.13
7.21
4.81
2.90
1.34
-0.14
-1.72
-3.49
-5.54
-7.89
-10.50
-13.29
-16.07
-18.65
-20.85
-22.60
-23.88
-24.70
-24.89
-24.16
-22.22
-18.87
-14.35
-9.35
-4.96
-2.35
-2.27
-4.67
-8.64
-12.70
-15.34
-15.56
-13.13
-8.52
-2.55
3.89
10.11
15.70
20.31
23.65
25.46
25.58
24.11
21.40
17.94
14.19
10.58
7.37
4.73
2.75
1.48
0.87
0.92
1.59
2.76
4.34
6.13
7.91
9.41
10.39
10.65
10.24
9.34
8.18
7.07
6.09
5.20
4.28
3.21
1.98
0.71
-0.40
-1.23
-1.81
-2.35
-3.12
-4.23
-5.70
-7.44
-9.42
-11.67
-14.39
-17.86
-22.36
-28.02
-34.77
-42.25
-49.80
-56.52
-61.30
-63.05
-61.04
-55.21
-46.18
-35.14
-23.50
-12.47
-2.81
5.11
11.24
15.70
18.63
20.23
20.87
21.05
21.34
22.23
23.83
25.86
27.88
29.47
30.29
30.25
29.42
27.85
25.64
22.85
19.62
16.26
13.18
10.73
9.06
8.08
7.42
6.73
5.71
4.20
2.19
-0.23
-2.84
-5.32
-7.31
-8.50
-8.70
-7.97
-6.65
-5.26
-4.33
-4.27
-5.31
-7.44
-10.58
-14.37
-18.43
-22.26
-25.50
-28.02
-29.87
-31.37
-32.75
-34.11
-35.12
-35.20
-33.64
-29.80
-23.61
-15.44
-6.18
3.16
11.49
18.11
22.53
24.59
24.41
22.24
18.49
13.70
8.57
3.76
-0.05
-2.35
-2.96
-1.90
0.49
3.75
7.36
10.90
14.06
16.74
18.95
20.71
22.06
22.93
23.23
22.79
21.48
19.33
16.62
13.77
11.17
9.08
7.39
5.79
3.89
1.37
-1.87
-5.52
-8.96
-11.31
-11.39
-8.33
-1.75
7.89
19.20
30.11
38.59
43.20
43.50
40.08
34.03
26.62
18.83
11.35
4.70
-0.67
-4.35
-6.11
-6.00
-4.48
-2.17
0.23
2.10
3.12
3.25
2.60
1.42
0.05
-1.23
-2.14
-2.41
-1.95
-0.78
0.99
3.06
5.12
6.96
8.40
9.38
9.91
9.85
9.10
7.54
5.22
2.32
-0.78
-3.79
-6.54
-9.03
-11.48
-14.11
-17.10
-20.45
-24.01
-27.59
-31.00
-34.08
-36.65
-38.65
-40.02
-40.83
-41.27
-41.60
-42.20
-43.34
-45.12
-47.29
-49.31
-50.38
-49.69
-46.67
-41.15
-33.44
-24.30
-14.72
-5.66
2.16
8.35
12.80
15.54
16.71
16.53
15.30
13.46
11.49
9.82
8.85
8.73
9.41
10.74
12.48
14.39
16.31
18.10
19.66
20.91
21.78
22.18
22.04
21.26
19.75
17.51
14.65
11.35
7.83
4.30
0.92
-2.23
-5.14
-7.89
-10.51
-12.98
-15.28
-17.35
-19.19
-20.84
-22.38
-23.94
-25.73
-27.88
-30.61
-34.03
-38.10
-42.57
-46.80
-49.91
-50.88
-48.92
-43.73
-35.76
-25.97
-15.55
-5.65
3.00
10.08
15.64
19.83
22.90
24.93
26.07
26.57
26.69
26.76
26.98
27.42
27.99
28.52
28.83
28.84
28.64
28.32
27.98
27.63
27.18
26.49
25.42
23.97
22.19
20.23
18.25
16.43
14.86
13.56
12.50
11.52
10.48
9.24
7.66
5.66
3.33
0.75
-1.95
-4.60
-7.12
-9.49
-11.75
-14.12
-16.85
-20.11
-23.91
-28.02
-31.85
-34.59
-35.36
-33.52
-28.91
-21.91
-13.38
-4.38
4.08
11.31
16.87
20.73
22.97
23.80
23.53
22.43
20.79
18.87
16.96
15.24
13.96
13.28
13.26
13.89
15.03
16.47
18.00
19.49
20.82
21.99
22.94
23.60
23.91
23.75
23.01
21.68
19.78
17.43
14.84
12.21
9.62
7.16
4.73
2.30
-0.00
-2.09
-3.76
-4.86
-5.41
-5.58
-5.65
-6.01
-6.98
-8.56
-10.59
-12.56
-13.79
-13.70
-11.94
-8.51
-3.82
1.53
6.90
11.69
15.49
18.06
19.25
19.00
17.39
14.58
10.93
6.87
2.92
-0.42
-2.73
-3.80
-3.55
-2.11
0.22
2.96
5.60
7.59
8.65
8.76
8.14
7.19
6.23
5.33
4.33
2.95
0.93
-1.71
-4.70
-7.67
-10.31
-12.53
-14.55
-16.71
-19.33
-22.58
-26.45
-30.76
-35.11
-39.01
-41.80
-42.83
-41.67
-38.17
-32.63
-25.64
-17.98
-10.38
-3.34
2.77
7.72
11.36
13.57
14.35
13.90
12.61
11.04
9.81
9.36
9.79
10.93
12.32
13.51
14.18
14.26
13.87
13.25
12.60
12.00
11.50
10.97
10.23
8.98
6.92
3.79
-0.43
-5.55
-11.11
-16.58
-21.55
-25.87
-29.64
-33.12
-36.44
-39.48
-41.81
-42.70
-41.46
-37.66
-31.35
-23.04
-13.60
-3.95
5.14
13.02
19.21
23.22
24.59
22.97
18.31
10.89
1.36
-9.40
-20.40
-30.58
-38.80
-44.01
-45.34
-42.53
-36.08
-27.27
-17.80
-9.20
-2.31
2.91
7.30
12.10
18.12
25.49
33.44
40.62
45.71
48.00
47.71
46.01
44.60
44.90
47.67
52.64
58.72
64.39
68.12
68.81
65.82
59.14
49.25
37.01
23.59
10.03
-3.34
-17.49
-34.66
-57.40
-86.92
-121.53
-156.23
-184.08
-198.76
-197.21
-181.01
-155.51
-127.51
-102.59
-83.45
-70.00
-60.75
-54.24
-49.77
-47.11
-45.67
-44.02
-40.30
-33.08
-22.28
-9.40
2.96
12.36
17.58
19.08
18.70
18.69
20.85
26.00
33.86
43.41
53.40
62.80
70.91
77.29
81.39
82.53
79.80
72.29
59.44
41.19
18.20
-8.17
-35.72
-61.42
-81.61
-92.59
-91.68
-78.02
-53.10
-20.43
15.64
51.34
84.29
113.70
140.24
165.20
189.75
214.28
237.97
259.02
275.17
284.42
285.52
278.28
263.28
241.55
214.20
182.29
147.02
109.94
72.89
37.51
5.03
-24.10
-50.22
-74.02
-96.21
-117.07
-136.11
-151.87
-162.32
-165.49
-160.39
-147.37
-127.90
-103.97
-77.43
-49.41
-20.48
9.07
38.84
68.10
95.91
121.28
143.35
161.36
174.61
182.30
183.70
178.28
166.12
148.16
126.09
101.97
77.35
52.63
27.10
-0.52
-30.85
-63.04
-94.58
-122.27
-143.51
-157.42
-165.02
-168.27
-168.98
-167.65
-163.71
-156.20
-144.89
-130.89
-116.39
-103.75
-94.32
-88.17
-84.01
-80.28
-75.97
-71.06
-66.38
-62.84
-60.84
-59.76
-58.37
-55.19
-49.17
-40.19
-29.03
-17.32
-7.02
-0.03
2.47
0.40
-4.80
-10.27
-12.45
-8.21
3.95
23.20
46.54
69.79
88.87
101.05
105.37
102.39
93.46
79.97
63.16
44.29
25.00
7.17
-7.50
-18.09
-24.98
-29.46
-33.08
-36.69
-40.09
-42.05
-41.14
-36.45
-28.01
-16.79
-4.20
8.34
19.80
29.45
36.91
41.79
43.73
42.21
36.72
27.14
14.01
-1.21
-16.36
-29.12
-37.93
-42.59
-44.43
-45.91
-49.53
-57.04
-68.77
-83.87
-100.54
-116.93
-131.43
-142.82
-150.43
-153.96
-153.66
-150.43
-145.74
-141.23
-138.22
-137.17
-137.47
-137.94
-137.22
-134.58
-130.12
-124.62
-119.06
-114.14
-110.00
-106.15
-101.86
-96.24
-88.65
-78.78
-66.77
-53.10
-38.44
-23.59
-9.11
4.65
17.72
30.41
43.24
56.76
71.43
87.49
105.01
123.79
143.28
162.66
180.85
196.67
209.11
217.48
221.56
221.57
218.02
211.32
201.71
189.19
173.80
155.82
135.98
115.39
95.29
76.80
60.63
46.90
35.34
25.46
16.74
8.66
0.86
-6.97
-14.93
-22.93
-30.75
-38.10
-44.73
-50.50
-55.35
-59.23
-62.05
-63.66
-63.85
-62.57
-60.01
-56.75
-53.58
-51.38
-50.68
-51.48
-53.03
-53.83
-52.11
-46.19
-35.26
-19.51
-0.27
20.23
39.28
54.31
63.35
65.42
60.72
50.55
37.15
23.24
11.39
3.44
0.09
0.82
4.21
8.63
12.85
16.39
19.49
22.55
25.65
28.27
29.48
28.42
24.84
19.21
12.40
5.30
-1.67
-8.55
-15.61
-23.10
-30.95
-38.81
-46.22
-52.92
-58.83
-64.08
-68.72
-72.62
-75.30
-76.00
-73.91
-68.48
-59.72
-48.27
-35.20
-21.80
-9.13
2.09
11.46
18.75
23.70
26.12
26.05
23.90
20.38
16.44
12.92
10.33
8.89
8.48
8.86
9.77
10.97
12.10
12.85
12.83
11.77
9.55
6.26
2.17
-2.35
-6.84
-10.98
-14.53
-17.53
-20.17
-22.72
-25.54
-28.77
-32.29
-35.66
-38.17
-38.94
-37.24
-32.70
-25.45
-16.18
-5.88
4.35
13.53
21.04
26.63
30.31
32.25
32.75
32.12
30.67
28.66
26.26
23.56
20.66
17.78
15.19
13.36
12.62
13.14
14.81
17.22
19.83
21.99
23.18
22.94
21.05
17.43
12.35
6.33
0.06
-5.72
-10.51
-14.21
-17.09
-19.67
-22.46
-25.59
-28.73
-31.14
-31.88
-30.19
-25.79
-18.91
-10.30
-0.99
8.00
15.85
21.99
26.16
28.35
28.68
27.34
24.67
21.01
16.81
12.48
8.42
5.03
2.63
1.37
1.22
1.91
2.91
3.62
3.41
1.97
-0.72
-4.41
-8.72
-13.36
-18.26
-23.58
-29.60
-36.54
-44.47
-53.16
-62.01
-70.02
-76.05
-78.96
-78.04
-73.15
-64.83
-54.04
-41.85
-29.21
-16.69
-4.54
7.19
18.45
29.11
38.73
46.56
51.62
53.00
50.45
44.64
37.05
29.38
22.71
16.87
10.52
1.99
-9.67
-23.83
-38.36
-50.48
-57.92
-59.64
-56.06
-48.50
-38.52
-27.17
-14.90
-1.58
13.10
29.25
46.29
62.81
76.76
86.01
89.08
85.72
76.88
64.36
50.09
35.62
22.41
12.17
7.10
9.37
20.19
38.88
62.61
87.18
108.20
122.40
128.28
126.15
117.58
104.98
91.02
78.34
69.10
64.71
65.67
71.45
80.79
92.01
103.24
112.67
118.74
120.27
116.49
107.20
92.47
72.64
48.11
19.59
-11.72
-43.70
-73.44
-97.94
-114.98
-124.06
-126.40
-124.44
-120.57
-116.22
-111.66
-106.41
-100.14
-93.21
-86.86
-82.42
-80.65
-81.21
-82.79
-83.61
-82.11
-77.68
-70.89
-63.32
-56.78
-52.34
-49.52
-46.42
-40.56
-30.25
-15.82
0.37
14.71
23.90
26.11
21.53
11.74
-1.17
-15.25
-29.28
-42.54
-54.60
-64.87
-72.57
-76.70
-76.26
-70.80
-60.54
-46.54
-30.07
-12.00
7.64
29.56
54.48
82.30
111.57
139.78
164.14
182.61
194.41
199.94
200.17
196.16
188.77
178.70
166.75
153.83
140.86
128.59
117.46
107.55
98.75
90.79
83.30
75.86
68.08
59.65
50.48
40.68
30.61
20.64
11.01
1.65
-7.80
-17.70
-28.32
-39.47
-50.51
-60.44
-68.12
-72.69
-73.90
-72.24
-68.83
-65.15
-62.52
-61.71
-62.78
-65.17
-68.09
-70.94
-73.66
-76.75
-80.94
-86.71
-93.84
-101.37
-107.85
-111.97
-112.97
-111.07
-107.28
-102.92
-99.21
-96.80
-95.86
-96.29
-97.90
-100.29
-102.94
-105.25
-106.81
-107.64
-108.04
-108.11
-107.55
-105.37
-99.88
-89.39
-73.18
-52.05
-28.24
-4.44
17.50
36.51
52.63
67.05
81.54
97.39
114.75
132.43
148.43
161.13
168.85
171.00
168.96
165.68
164.38
167.19
174.42
184.57
195.37
202.62
201.63
188.74
162.37
123.21
74.32
20.80
-34.78
-83.05
-114.99
-128.01
-126.39
-116.67
-103.82
-90.38
-77.52
-66.34
-57.29
-50.67
-44.71
-34.73
-15.65
13.90
48.97
79.75
96.01
94.42
76.32
48.43
20.48
0.57
-8.03
-7.42
-2.51
2.24
4.82
4.47
0.55
-7.17
-18.51
-32.36
-46.94
-60.28
-71.36
-81.40
-90.16
-101.92
-121.75
-152.40
-192.07
-233.85
-267.32
-281.79
-269.72
-229.56
-166.84
-92.08
-18.39
41.41
77.38
84.28
62.08
15.50
-46.99
-115.51
-179.99
-232.13
-266.76
-282.53
-281.46
-268.10
-248.16
-226.53
-206.24
-187.46
-168.11
-145.34
-117.30
-84.08
-47.92
-12.28
19.60
45.37
64.04
75.76
81.38
82.44
81.35
81.37
86.09
98.29
118.60
144.93
173.18
198.58
217.63
229.14
234.35
236.12
238.12
243.90
256.41
277.11
305.20
337.19
367.31
388.89
396.15
385.66
356.85
311.76
254.48
190.35
125.32
65.21
14.49
-24.77
-53.31
-74.13
-91.03
-107.13
-124.05
-142.06
-160.80
-179.85
-198.58
-215.92
-230.21
-239.73
-243.38
-240.97
-232.91
-219.18
-198.82
-170.25
-132.26
-84.94
-30.16
28.76
87.72
142.11
187.11
217.98
231.25
226.32
206.69
179.46
152.97
133.38
122.11
115.94
109.53
99.10
84.86
70.78
62.09
62.24
71.14
85.66
101.61
115.37
124.62
127.56
122.01
105.16
74.67
30.20
-25.54
-87.02
-147.71
-202.17
-247.72
-284.72
-315.25
-341.14
-362.36
-376.94
-382.14
-376.65
-361.82
-341.38
-319.69
-299.41
-280.29
-259.75
-235.00
-205.01
-171.45
-137.63
-106.55
-79.19
-54.12
-28.74
-1.06
28.86
59.20
87.50
112.51
135.05
157.25
180.80
204.91
225.80
238.28
238.65
227.29
209.25
192.23
183.09
184.76
195.40
210.08
223.68
233.20
237.91
238.02
232.78
219.72
195.80
159.26
111.47
56.93
1.88
-48.32
-91.26
-128.35
-164.07
-203.50
-249.39
-299.99
-348.63
-385.72
-402.32
-393.72
-361.43
-312.39
-256.04
-200.53
-150.21
-105.35
-63.77
-23.14
17.78
59.34
101.91
146.01
191.30
234.88
270.75
291.07
289.31
263.18
216.02
155.50
90.57
28.55
-26.12
-71.30
-105.66
-127.88
-136.93
-133.05
-118.28
-95.97
-69.59
-41.46
-12.70
16.07
43.65
67.68
85.16
93.53
91.95
81.83
66.34
49.24
33.45
20.20
8.96
-1.70
-12.82
-24.23
-34.29
-40.62
-41.01
-34.49
-21.66
-4.48
14.23
31.59
45.30
54.34
59.02
60.87
62.09
64.70
69.95
78.02
88.13
99.08
109.70
118.97
126.17
130.89
132.92
132.57
130.67
128.66
128.29
131.00
137.29
146.41
156.64
165.94
172.85
176.87
178.44
178.28
176.74
173.52
168.09
160.01
149.19
135.78
119.65
100.07
75.93
46.24
10.94
-28.75
-70.51
-111.48
-148.72
-179.63
-202.12
-214.87
-217.81
-212.42
-201.76
-189.84
-180.54
-176.55
-178.90
-186.96
-199.17
-213.77
-229.18
-244.06
-257.07
-266.58
-270.62
-267.22
-254.84
-232.94
-202.44
-165.76
-126.42
-88.24
-54.29
-26.35
-4.73
11.36
23.23
32.40
40.62
49.86
62.52
80.91
106.67
139.98
179.03
220.13
258.68
290.63
313.63
327.66
334.09
334.29
328.36
314.89
291.80
258.01
214.46
164.08
110.84
58.87
12.16
-25.15
-48.74
-54.91
-42.17
-12.54
28.74
74.90
120.09
160.79
195.40
222.60
240.15
244.90
234.62
209.80
174.24
133.56
92.77
54.36
18.48
-15.34
-46.41
-72.17
-89.33
-95.68
-91.52
-79.53
-63.60
-47.47
-34.13
-26.01
-25.45
-34.43
-53.97
-83.27
-119.40
-158.30
-196.18
-230.87
-262.10
-290.43
-315.96
-337.66
-353.49
-361.52
-361.00
-352.81
-339.11
-322.62
-305.50
-288.63
-271.49
-252.50
-229.65
-201.66
-168.78
-133.18
-98.18
-66.63
-39.47
-15.66
6.54
27.38
44.21
52.38
47.82
29.78
2.01
-28.78
-55.69
-74.06
-82.16
-80.16
-68.43
-46.98
-16.05
22.73
65.73
108.13
145.94
177.51
203.81
227.76
252.23
278.37
305.12
328.93
344.67
346.73
330.68
294.92
242.29
180.18
119.09
69.23
36.57
20.07
11.44
-1.69
-30.99
-83.06
-157.84
-249.85
-350.93
-452.50
-546.23
-623.81
-677.03
-699.24
-687.86
-646.26
-583.37
-510.86
-439.64
-376.47
-323.44
-279.40
-241.96
-209.25
-180.22
-154.04
-129.40
-104.55
-77.69
-47.87
-15.27
18.83
52.74
85.30
116.38
146.90
178.39
212.65
251.01
293.90
340.14
386.30
426.76
454.70
463.92
451.20
417.90
369.73
314.91
261.45
214.58
176.09
145.17
120.13
99.99
84.86
75.30
71.21
71.42
73.82
76.34
77.70
77.83
77.51
77.56
77.99
77.77
75.12
68.15
56.01
39.40
20.72
3.46
-9.10
-15.12
-15.04
-11.39
-7.97
-8.07
-13.31
-22.96
-34.33
-43.89
-48.49
-46.29
-37.15
-22.54
-5.03
12.38
27.03
37.30
42.88
44.56
43.63
41.18
37.67
33.05
27.25
20.78
14.99
11.80
13.11
20.24
33.40
51.82
73.99
98.08
122.52
146.38
169.58
192.74
216.59
241.22
265.48
286.86
302.03
307.90
302.59
286.08
259.99
226.74
188.59
147.10
103.00
56.79
9.23
-38.24
-83.87
-125.91
-163.20
-195.22
-222.06
-244.05
-261.69
-275.56
-286.37
-294.82
-301.21
-305.26
-306.01
-302.36
-293.62
-280.02
-262.50
-242.16
-219.54
-194.31
-165.84
-134.00
-99.92
-65.90
-34.66
-8.36
12.00
26.48
35.72
40.49
41.67
40.51
38.62
37.76
39.02
42.17
45.94
48.83
50.36
51.78
55.84
65.34
81.42
102.20
122.90
137.46
140.95
131.69
112.03
87.29
63.47
44.69
31.80
22.63
13.74
2.17
-13.22
-31.88
-52.39
-73.31
-93.36
-111.01
-124.17
-130.35
-127.72
-116.09
-97.53
-75.95
-55.80
-40.48
-31.43
-28.03
-28.21
-29.66
-30.55
-29.90
-27.67
-24.39
-20.83
-17.66
-15.24
-13.43
-11.77
-9.77
-7.16
-4.23
-1.64
-0.23
-0.50
-2.38
-5.14
-7.81
-9.58
-10.03
-9.24
-7.62
-5.65
-3.78
-2.37
-1.73
-2.11
-3.57
-5.78
-8.12
-9.79
-10.30
-9.71
-8.61
-7.82
-7.91
-8.88
-10.27
-11.56
-12.60
-13.83
-16.00
-19.54
-24.03
-28.04
-29.32
-25.53
-14.94
3.12
28.05
57.93
89.77
119.94
144.64
160.81
166.94
163.57
153.24
139.61
126.25
115.58
108.41
104.13
101.53
99.59
97.93
96.77
96.54
97.55
99.69
102.55
105.52
107.78
108.46
106.50
101.06
91.79
79.18
64.56
49.76
36.44
25.56
17.05
9.85
2.51
-6.16
-16.72
-28.91
-41.85
-54.38
-65.40
-74.25
-80.76
-85.24
-88.26
-90.51
-92.58
-94.93
-97.67
-100.59
-103.15
-104.76
-105.06
-103.98
-101.88
-99.07
-95.56
-90.76
-83.62
-72.76
-57.04
-35.99
-10.16
18.84
48.72
77.00
101.81
122.29
138.59
151.27
160.52
165.57
164.89
157.20
142.40
122.10
99.12
76.25
55.18
36.15
18.56
1.96
-13.11
-25.20
-32.81
-35.30
-33.52
-29.54
-25.82
-24.15
-25.27
-28.84
-34.15
-40.91
-49.69
-61.86
-78.79
-101.03
-127.60
-156.06
-183.37
-207.12
-226.42
-241.96
-255.26
-267.44
-278.30
-286.36
-289.76
-287.32
-279.35
-267.49
-253.60
-238.71
-222.26
-202.38
-176.83
-144.10
-104.03
-57.70
-6.58
48.31
106.62
168.38
232.97
298.45
361.45
418.10
465.30
501.82
528.41
546.78
558.18
562.23
556.89
539.47
508.20
463.39
407.90
346.28
283.29
222.51
165.49
112.00
60.96
11.58
-35.84
-79.85
-118.57
-150.64
-175.95
-195.78
-212.21
-227.13
-241.35
-254.38
-264.66
-270.40
-270.22
-263.52
-250.59
-232.37
-210.16
-185.29
-159.05
-132.77
-108.05
-86.87
-71.56
-64.33
-66.47
-77.88
-96.96
-121.23
-148.12
-175.42
-201.21
-223.36
-239.49
-247.29
-245.58
-235.03
-218.01
-197.51
-175.60
-152.63
-127.57
-99.42
-68.60
-37.58
-9.88
11.60
25.98
34.74
40.85
47.24
55.41
65.07
74.49
81.56
84.95
84.67
82.11
79.38
78.43
80.25
84.68
90.75
97.48
104.81
113.92
126.97
146.09
172.27
204.54
240.06
274.96
305.47
328.90
343.81
349.88
347.02
335.09
313.78
283.03
243.38
196.16
143.38
87.25
29.92
-26.66
-80.43
-129.28
-171.28
-205.40
-232.21
-253.70
-272.64
-291.31
-310.42
-328.76
-343.54
-351.32
-349.08
-335.04
-309.08
-272.94
-229.93
-184.20
-139.86
-99.82
-65.45
-36.58
-12.51
7.12
21.80
30.56
32.83
29.06
20.87
10.42
-0.40
-10.42
-19.16
-26.38
-31.42
-33.01
-29.70
-20.48
-5.59
13.16
32.70
49.66
61.36
66.67
66.11
61.39
54.55
47.12
39.82
32.76
25.84
19.17
13.07
7.88
3.82
0.97
-0.56
-0.42
1.99
7.18
15.27
25.60
36.67
46.60
53.52
56.24
54.45
48.78
40.51
31.18
22.20
14.49
8.40
3.82
0.48
-1.84
-3.20
-3.63
-3.19
-2.16
-1.02
-0.23
-0.17
-0.88
-2.10
-3.47
-4.64
-5.49
-6.11
-6.68
-7.30
-7.94
-8.39
-8.35
-7.69
-6.53
-5.37
-4.84
-5.55
-7.78
-11.48
-16.26
-21.55
-26.77
-31.27
-34.48
-35.85
-35.18
-32.75
-29.57
-27.12
-26.95
-30.15
-37.03
-47.24
-59.97
-74.35
-89.45
-104.22
-117.46
-127.78
-134.02
-135.55
-132.59
-126.09
-117.43
-107.97
-98.69
-90.09
-82.06
-74.14
-65.57
-55.56
-43.57
-29.50
-13.89
2.21
17.55
31.19
42.70
52.26
60.40
67.55
73.75
78.61
81.55
82.25
80.90
78.22
75.06
72.20
69.96
68.38
67.42
67.18
67.92
69.95
73.41
78.05
83.32
88.45
92.80
96.03
98.18
99.67
101.07
102.84
105.15
107.82
110.34
112.14
112.84
112.33
110.73
108.32
105.20
101.40
96.86
91.55
85.67
79.74
74.50
70.74
69.13
69.80
72.42
76.19
79.96
82.64
83.40
81.71
77.29
70.11
60.41
49.02
37.54
28.13
22.98
23.22
28.10
34.83
39.45
38.16
28.80
11.59
-11.16
-36.19
-60.73
-83.36
-104.13
-123.84
-143.19
-162.10
-179.45
-193.28
-200.83
-198.96
-184.49
-155.12
-110.80
-54.72
6.51
64.24
110.36
139.95
152.87
153.30
147.50
141.34
138.80
141.57
149.75
162.19
176.31
187.65
190.08
177.44
146.14
97.51
38.21
-21.67
-72.07
-106.28
-122.77
-124.52
-116.99
-105.67
-94.40
-85.11
-78.28
-73.72
-71.03
-69.70
-68.94
-67.75
-65.14
-60.57
-54.23
-46.88
-39.64
-33.50
-28.98
-25.94
-23.79
-21.74
-19.08
-15.42
-10.76
-5.55
-0.52
3.46
5.68
5.73
3.57
-0.49
-6.04
-12.55
-19.41
-25.88
-31.20
-34.72
-36.17
-35.76
-34.10
-31.94
-29.86
-28.18
-26.98
-26.22
-25.87
-25.94
-26.38
-27.04
-27.72
-28.24
-28.57
-28.89
-29.42
-30.36
-31.79
-33.57
-35.57
-37.71
-40.00
-42.49
-45.08
-47.38
-48.78
-48.56
-46.16
-41.43
-34.66
-26.46
-17.56
-8.57
0.07
8.13
15.61
22.62
29.45
36.39
43.55
50.75
57.42
62.82
66.37
68.03
68.32
68.17
68.42
69.52
71.34
73.29
74.62
74.64
72.91
69.21
63.54
56.04
47.05
37.10
26.72
16.41
6.39
-3.26
-12.60
-21.61
-30.16
-38.06
-45.14
-51.39
-56.84
-61.61
-65.66
-68.89
-71.28
-72.97
-74.37
-75.93
-77.94
-80.27
-82.39
-83.52
-82.94
-80.29
-75.70
-69.79
-63.46
-57.82
-53.86
-52.26
-53.21
-56.26
-60.48
-64.69
-68.06
-70.33
-72.05
-74.33
-78.30
-84.69
-93.40
-103.56
-113.70
-122.38
-128.55
-131.88
-133.02
-133.51
-135.55
-141.03
-150.58
-162.47
-172.63
-175.31
-164.96
-138.37
-96.18
-43.24
12.78
63.64
102.91
127.52
137.95
137.36
129.91
119.64
109.50
101.48
96.96
96.91
101.84
111.46
124.47
138.78
152.46
164.34
174.48
183.83
193.44
203.54
212.94
219.28
219.90
213.19
199.29
180.26
159.33
139.50
122.47
108.06
94.64
80.23
63.73
45.60
27.60
12.04
0.61
-6.10
-8.62
-8.16
-6.20
-4.24
-3.66
-5.56
-10.15
-16.37
-21.71
-22.78
-16.67
-2.25
19.20
44.13
67.93
86.29
96.18
96.34
87.11
70.12
48.08
24.38
2.67
-13.69
-22.48
-22.92
-15.89
-3.44
11.92
28.22
44.42
60.32
76.19
91.89
106.46
118.06
124.63
124.63
117.69
104.68
87.17
66.68
44.23
20.28
-4.81
-30.23
-54.60
-76.14
-93.25
-105.00
-111.39
-113.19
-111.48
-107.33
-101.53
-94.60
-87.14
-79.94
-73.87
-69.71
-67.85
-68.01
-69.35
-70.87
-71.78
-71.81
-71.20
-70.45
-70.04
-70.24
-71.02
-72.21
-73.61
-75.18
-76.87
-78.49
-79.65
-79.69
-77.90
-73.76
-67.14
-58.36
-47.89
-36.24
-23.77
-10.73
2.60
15.72
27.96
38.62
47.25
53.82
58.74
62.56
65.64
68.04
69.38
69.17
67.05
63.05
57.63
51.54
45.48
39.84
34.67
29.67
24.49
18.88
12.77
6.25
-0.51
-7.44
-14.58
-21.93
-29.45
-36.94
-44.05
-50.48
-56.00
-60.45
-63.85
-66.26
-67.73
-68.42
-68.53
-68.31
-68.09
-68.20
-68.78
-69.84
-71.04
-71.77
-71.35
-69.08
-64.45
-57.43
-48.50
-38.51
-28.58
-19.71
-12.57
-7.50
-4.47
-3.21
-3.36
-4.43
-5.89
-7.21
-7.90
-7.63
-6.38
-4.28
-1.64
1.34
4.50
7.92
11.65
15.76
20.22
24.82
29.25
33.01
35.64
36.72
36.09
33.80
30.22
25.83
21.08
16.25
11.40
6.49
1.54
-3.34
-7.91
-11.95
-15.43
-18.54
-21.64
-25.05
-28.96
-33.25
-37.68
-41.87
-45.47
-48.17
-49.72
-49.87
-48.42
-45.38
-40.90
-35.39
-29.15
-22.34
-14.84
-6.41
2.93
12.67
21.76
28.97
33.32
34.52
33.06
30.02
26.61
23.71
21.69
20.48
19.77
19.24
18.69
18.06
17.36
16.63
15.88
15.09
14.17
13.04
11.61
9.85
7.77
5.45
2.90
0.12
-2.90
-6.17
-9.66
-13.31
-17.06
-20.89
-24.75
-28.58
-32.30
-35.81
-39.00
-41.85
-44.38
-46.63
-48.73
-50.81
-52.84
-54.64
-55.66
-55.23
-52.65
-47.56
-40.14
-31.14
-21.65
-12.79
-5.37
0.25
4.10
6.52
7.92
8.65
8.80
8.26
6.76
3.98
-0.17
-5.58
-11.81
-18.37
-24.88
-31.25
-37.61
-44.19
-51.10
-58.19
-64.93
-70.49
-73.78
-73.62
-68.85
-58.54
-42.21
-20.14
6.54
36.00
66.05
94.73
120.64
142.97
161.18
174.61
182.17
182.69
175.46
160.68
139.78
115.06
89.02
63.79
40.69
20.38
3.09
-10.98
-21.65
-28.73
-32.26
-32.55
-30.29
-26.46
-22.23
-18.78
-17.07
-17.66
-20.61
-25.46
-31.33
-37.02
-41.25
-42.80
-40.63
-34.06
-22.87
-7.33
11.72
32.95
54.84
75.85
94.71
110.57
123.05
132.28
138.77
143.25
146.43
148.79
150.50
151.48
151.50
150.35
147.91
144.17
139.16
132.85
125.18
116.14
105.87
94.61
82.62
70.03
56.69
42.21
26.15
8.21
-11.69
-33.20
-55.73
-78.51
-100.65
-121.42
-140.16
-156.40
-169.82
-180.23
-187.56
-191.95
-193.74
-193.52
-192.08
-190.20
-188.45
-187.00
-185.66
-184.10
-182.09
-179.63
-177.01
-174.67
-173.04
-172.57
-173.78
-177.19
-183.14
-191.24
-199.84
-205.84
-205.23
-193.97
-169.15
-129.71
-76.58
-12.55
58.10
129.99
197.04
253.16
293.10
313.30
312.48
291.96
255.24
207.42
154.39
101.76
54.05
14.01
-17.49
-41.02
-57.58
-67.80
-71.57
-68.56
-59.06
-44.48
-27.08
-9.08
8.28
25.04
41.90
59.37
77.09
93.93
108.78
121.26
131.92
141.65
150.75
158.26
162.11
160.09
150.84
134.57
112.93
88.38
63.30
39.60
18.59
1.07
-12.57
-22.30
-28.70
-32.81
-35.87
-38.99
-42.62
-46.37
-49.34
-50.52
-49.38
-46.21
-42.01
-38.18
-35.91
-35.76
-37.46
-40.14
-42.62
-43.82
-43.17
-40.68
-36.87
-32.52
-28.32
-24.68
-21.76
-19.50
-17.92
-17.35
-18.17
-20.57
-24.30
-28.44
-31.82
-33.44
-32.91
-30.68
-27.79
-25.39
-24.25
-24.55
-25.87
-27.64
-29.24
-30.21
-30.22
-29.00
-26.28
-21.86
-15.74
-8.16
0.39
9.27
17.84
25.56
32.21
37.82
42.82
47.88
53.74
60.82
69.04
77.68
85.66
91.96
96.02
97.96
98.52
98.69
99.19
100.30
101.72
102.84
103.07
102.01
99.73
96.59
93.20
90.11
87.63
85.70
84.00
82.01
79.24
75.40
70.39
64.18
56.79
48.12
37.92
26.02
12.41
-2.63
-18.50
-34.48
-49.92
-64.42
-77.93
-90.76
-103.45
-116.49
-130.19
-144.33
-158.13
-170.30
-179.28
-183.67
-182.51
-175.52
-163.06
-145.81
-124.40
-99.04
-69.31
-34.33
6.57
53.20
103.96
155.62
203.76
243.81
272.05
286.45
287.05
275.59
254.92
228.27
198.50
167.76
137.31
107.64
78.72
50.43
22.81
-3.85
-29.04
-52.35
-73.37
-91.80
-107.30
-119.37
-127.52
-131.46
-131.44
-128.25
-123.17
-117.48
-112.08
-107.36
-103.15
-99.03
-94.60
-89.73
-84.59
-79.51
-74.76
-70.49
-66.70
-63.28
-60.26
-57.69
-55.68
-54.31
-53.46
-52.93
-52.41
-51.67
-50.55
-49.08
-47.34
-45.46
-43.55
-41.68
-39.86
-37.97
-35.76
-32.88
-28.99
-23.96
-17.94
-11.42
-5.12
0.25
4.22
6.65
7.70
7.71
6.99
5.76
4.22
2.67
1.55
1.44
2.78
5.68
9.84
14.60
19.21
23.12
26.04
27.89
28.68
28.39
26.94
24.39
20.99
17.26
13.78
11.04
9.27
8.33
7.86
7.43
6.64
5.24
3.10
0.26
-3.21
-7.13
-11.24
-15.25
-18.91
-22.00
-24.45
-26.25
-27.45
-28.12
-28.28
-27.88
-26.75
-24.70
-21.56
-17.34
-12.18
-6.43
-0.54
5.01
9.79
13.54
16.10
17.53
18.00
17.75
17.08
16.28
15.60
15.20
15.25
15.79
16.79
18.10
19.47
20.53
20.97
20.52
19.07
16.75
13.87
10.87
8.16
6.04
4.57
3.69
3.19
2.83
2.37
1.61
0.35
-1.53
-4.08
-7.18
-10.60
-14.04
-17.29
-20.30
-23.18
-26.02
-28.83
-31.35
-33.17
-33.80
-32.96
-30.69
-27.44
-24.02
-21.29
-19.99
-20.35
-22.14
-24.67
-27.19
-29.27
-31.00
-32.97
-35.96
-40.55
-46.82
-54.35
-62.38
-70.27
-77.73
-84.94
-92.39
-100.66
-110.40
-122.25
-136.74
-153.75
-171.80
-187.53
-195.95
-191.79
-171.40
-134.50
-84.57
-27.70
29.46
81.90
127.18
165.05
196.16
220.94
239.30
251.18
257.32
259.63
260.63
262.44
265.79
269.93
273.06
273.42
269.99
262.75
252.36
239.55
224.73
207.94
189.18
168.67
146.96
124.86
103.08
82.17
62.58
44.92
30.08
19.04
12.41
9.95
10.39
11.54
10.96
6.61
-2.56
-16.43
-33.89
-53.28
-72.77
-90.62
-105.44
-116.22
-122.46
-124.14
-121.79
-116.30
-108.88
-100.83
-93.24
-86.95
-82.34
-79.31
-77.47
-76.34
-75.57
-75.00
-74.61
-74.31
-73.99
-73.39
-72.39
-71.00
-69.39
-67.78
-66.19
-64.50
-62.48
-60.05
-57.35
-54.70
-52.37
-50.38
-48.59
-46.75
-44.89
-43.24
-42.13
-41.70
-41.73
-41.69
-40.92
-38.97
-35.76
-31.63
-27.14
-22.78
-18.92
-15.71
-13.20
-11.36
-10.15
-9.52
-9.39
-9.60
-9.95
-10.30
-10.53
-10.69
-10.91
-11.38
-12.26
-13.73
-15.82
-18.45
-21.45
-24.49
-27.25
-29.53
-31.44
-33.30
-35.58
-38.65
-42.65
-47.54
-53.25
-59.79
-67.39
-76.23
-86.23
-96.93
-107.66
-117.92
-127.91
-138.22
-149.32
-160.49
-169.16
-171.11
-161.55
-136.68
-94.82
-37.13
32.72
108.93
184.31
251.07
301.72
330.56
335.00
316.46
280.11
233.54
184.71
140.21
104.28
78.82
63.91
58.38
60.35
67.47
77.37
88.04
98.14
107.20
115.25
122.54
128.93
133.79
136.21
135.38
131.04
123.58
113.99
103.48
93.06
83.26
74.11
65.23
56.20
46.73
36.83
26.77
16.82
7.00
-3.11
-14.52
-28.63
-46.80
-69.68
-96.68
-125.67
-153.54
-176.94
-193.18
-200.98
-200.56
-193.22
-180.79
-164.97
-147.02
-127.54
-106.58
-83.69
-58.44
-30.99
-2.55
24.24
45.95
59.43
63.36
59.01
50.11
41.42
36.83
37.79
42.79
48.33
50.54
47.07
38.13
26.37
15.61
9.07
8.19
12.19
19.04
26.73
34.25
41.85
50.27
59.68
69.02
76.19
78.93
75.88
67.27
54.52
39.53
23.84
8.25
-7.16
-22.42
-37.31
-51.17
-63.04
-72.01
-77.56
-79.74
-79.14
-76.62
-73.14
-69.43
-65.94
-62.74
-59.75
-56.86
-54.12
-51.74
-50.00
-49.08
-48.97
-49.43
-50.07
-50.48
-50.43
-49.84
-48.83
-47.65
-46.58
-45.95
-46.07
-47.21
-49.51
-53.01
-57.53
-62.74
-68.26
-73.68
-78.70
-83.08
-86.75
-89.71
-92.07
-93.98
-95.51
-96.57
-96.83
-95.91
-93.59
-90.15
-86.33
-83.31
-82.14
-83.28
-86.30
-89.84
-91.93
-90.30
-82.91
-68.46
-46.89
-19.61
10.68
40.52
66.62
86.51
98.98
103.76
101.12
91.48
75.52
54.44
30.45
6.68
-13.30
-26.33
-30.47
-25.20
-11.37
9.23
34.18
60.69
85.78
106.63
121.07
127.97
127.57
121.28
111.07
99.01
86.83
75.90
67.41
62.59
62.55
67.84
77.99
91.21
104.63
115.18
120.25
118.39
109.51
94.57
75.13
52.88
29.30
5.53
-17.47
-39.07
-58.91
-76.96
-93.48
-108.80
-122.85
-134.53
-141.50
-140.39
-128.01
-102.92
-66.82
-24.85
15.84
48.45
69.15
78.57
81.35
84.15
92.89
110.61
136.35
166.00
193.84
214.67
225.38
225.66
217.62
204.68
190.09
175.59
161.28
146.02
128.65
108.82
87.07
64.18
40.31
14.60
-14.55
-48.37
-86.83
-128.32
-169.82
-207.51
-237.32
-255.49
-259.04
-246.44
-218.30
-177.63
-129.58
-80.07
-34.40
3.86
33.02
52.72
63.29
65.58
60.95
51.56
40.19
29.58
21.60
16.79
14.47
13.54
13.13
12.94
13.18
14.06
15.41
16.71
17.55
18.01
18.95
21.86
28.50
40.53
58.93
83.54
112.63
143.02
170.44
190.64
200.54
199.22
188.07
170.11
148.70
126.40
104.40
82.81
61.24
39.51
17.99
-2.70
-21.96
-39.58
-55.61
-70.15
-83.13
-94.23
-103.02
-109.21
-112.95
-114.86
-115.86
-116.79
-118.12
-119.77
-121.07
-120.99
-118.45
-112.80
-103.97
-92.57
-79.65
-66.38
-53.76
-42.36
-32.43
-23.99
-17.08
-11.71
-7.87
-5.48
-4.33
-4.22
-4.90
-6.16
-7.79
-9.55
-11.16
-12.46
-13.52
-14.60
-16.10
-18.26
-21.04
-24.10
-26.90
-28.87
-29.67
-29.20
-27.57
-25.16
-22.41
-19.90
-18.26
-17.95
-19.26
-22.15
-26.29
-31.16
-36.24
-41.06
-45.32
-48.92
-51.81
-54.01
-55.56
-56.48
-56.72
-56.23
-54.82
-52.29
-48.44
-43.16
-36.51
-28.76
-20.27
-11.42
-2.64
5.71
13.17
19.28
23.68
26.13
26.74
25.87
24.05
21.78
19.42
17.12
15.06
13.45
12.63
12.88
14.39
17.00
20.23
23.45
26.00
27.46
27.70
26.88
25.28
23.21
20.86
18.33
15.66
12.96
10.32
7.89
5.71
3.71
1.73
-0.44
-2.89
-5.56
-8.32
-11.13
-13.96
-16.91
-20.05
-23.35
-26.51
-29.05
-30.39
-30.03
-27.80
-23.85
-18.63
-12.80
-6.97
-1.59
3.09
7.04
10.27
12.84
14.73
15.91
16.41
16.36
15.97
15.50
15.15
14.99
15.06
15.29
15.63
16.08
16.63
17.26
17.93
18.50
18.82
18.73
18.11
16.98
15.48
13.83
12.23
10.83
9.60
8.43
7.21
5.84
4.27
2.50
0.53
-1.67
-4.09
-6.71
-9.46
-12.30
-15.20
-18.22
-21.37
-24.59
-27.56
-29.74
-30.54
-29.52
-26.56
-21.95
-16.29
-10.25
-4.40
0.94
5.60
9.53
12.69
15.07
16.69
17.63
18.07
18.20
18.23
18.36
18.67
19.21
19.95
20.77
21.51
22.07
22.42
22.55
22.50
22.19
21.54
20.41
18.73
16.57
14.17
11.82
9.83
8.39
7.47
6.91
6.37
5.57
4.32
2.57
0.44
-1.89
-4.25
-6.57
-8.95
-11.51
-14.35
-17.41
-20.54
-23.52
-26.15
-28.21
-29.46
-29.67
-28.57
-26.04
-22.12
-17.10
-11.47
-5.71
-0.24
4.75
9.22
13.19
16.64
19.53
21.74
23.21
23.92
23.94
23.43
22.58
21.63
20.77
20.20
19.95
20.01
20.27
20.59
20.79
20.65
20.02
18.72
16.77
14.25
11.41
8.53
5.83
3.48
1.44
-0.39
-2.14
-3.89
-5.69
-7.51
-9.32
-11.16
-13.05
-15.01
-17.02
-19.00
-20.87
-22.56
-24.14
-25.72
-27.43
-29.26
-30.91
-31.90
-31.66
-29.85
-26.45
-21.77
-16.35
-10.73
-5.28
-0.20
4.41
8.45
11.74
14.14
15.57
16.12
16.00
15.51
14.96
14.55
14.41
14.61
15.13
15.91
16.89
17.96
19.01
19.92
20.51
20.55
19.83
18.15
15.53
12.15
8.44
4.88
1.93
-0.14
-1.34
-1.89
-2.19
-2.64
-3.52
-4.93
-6.73
-8.68
-10.50
-12.09
-13.41
-14.59
-15.81
-17.23
-18.88
-20.66
-22.20
-23.11
-23.01
-21.71
-19.27
-16.02
-12.45
-9.03
-6.13
-3.82
-1.96
-0.36
1.16
2.57
3.61
3.86
2.87
0.40
-3.40
-7.97
-12.52
-16.28
-18.85
-20.32
-21.19
-22.13
-23.69
-25.99
-28.78
-31.66
-34.36
-37.04
-40.26
-44.75
-51.16
-59.86
-70.87
-83.69
-97.16
-109.12
-116.42
-115.30
-102.39
-75.91
-36.78
11.50
63.65
114.19
158.76
194.59
220.03
233.72
233.94
218.80
187.37
140.85
83.28
21.09
-38.23
-87.98
-123.71
-143.67
-148.53
-140.42
-122.15
-96.91
-68.19
-39.85
-15.67
1.57
11.07
14.30
14.47
15.08
18.44
24.87
32.91
40.27
45.23
47.27
47.11
46.09
45.42
45.81
47.47
50.37
54.50
60.01
66.99
75.36
84.76
94.71
104.66
114.13
122.52
128.93
132.08
130.51
123.03
109.36
90.42
68.19
45.12
23.14
3.10
-15.40
-33.43
-51.99
-71.27
-90.64
-108.83
-124.42
-136.22
-143.17
-144.30
-138.79
-126.18
-106.76
-81.84
-53.55
-24.35
3.45
28.29
49.40
66.69
80.56
91.65
100.52
107.57
112.81
115.75
115.58
111.51
103.20
91.10
76.41
60.76
45.58
31.83
19.73
9.03
-0.74
-9.97
-18.93
-27.79
-36.61
-45.33
-53.65
-60.95
-66.42
-69.43
-69.78
-67.99
-65.23
-62.93
-62.33
-64.05
-67.96
-73.27
-79.00
-84.28
-88.55
-91.68
-93.81
-95.18
-96.04
-96.58
-96.82
-96.63
-95.68
-93.34
-88.91
-81.86
-71.95
-59.43
-44.97
-29.45
-13.71
1.50
15.69
28.51
39.75
49.33
57.31
63.78
68.86
72.61
75.00
76.01
75.63
73.95
71.20
67.70
63.74
59.57
55.27
50.85
46.34
41.84
37.60
33.93
31.09
29.07
27.67
26.45
24.95
22.94
20.37
17.45
14.42
11.50
8.79
6.34
4.19
2.37
0.89
-0.47
-2.12
-4.66
-8.65
-14.33
-21.39
-28.99
-35.99
-41.28
-44.22
-44.75
-43.08
-39.31
-33.12
-23.71
-10.31
7.20
27.84
49.51
69.48
85.25
95.22
98.91
96.93
90.49
80.81
68.99
55.70
41.23
25.47
8.05
-11.46
-33.22
-56.78
-80.91
-103.66
-122.75
-136.14
-142.49
-141.48
-133.78
-120.78
-104.29
-86.14
-67.84
-50.53
-34.75
-20.53
-7.57
4.58
16.21
27.30
37.50
46.31
53.20
57.60
59.00
56.85
50.84
41.09
28.41
14.25
0.40
-11.59
-21.00
-28.20
-34.48
-41.39
-49.97
-59.99
-70.00
-77.81
-81.45
-79.99
-73.81
-64.36
-53.39
-42.30
-31.67
-21.38
-10.99
-0.09
11.50
23.66
36.15
48.61
60.65
71.75
81.39
88.99
94.03
96.12
95.00
90.68
83.42
73.81
62.60
50.55
38.27
26.15
14.38
3.08
-7.58
-17.49
-26.48
-34.46
-41.29
-46.78
-50.65
-52.69
-52.94
-51.62
-49.23
-46.18
-42.72
-38.73
-33.96
-28.17
-21.47
-14.36
-7.52
-1.56
3.26
7.20
10.86
14.92
19.87
25.77
32.32
38.94
44.99
49.92
53.36
55.10
55.12
53.58
50.82
47.28
43.47
39.76
36.32
33.10
29.82
26.21
22.10
17.52
12.71
8.03
3.81
0.25
-2.68
-5.26
-7.91
-10.94
-14.59
-18.81
-23.43
-28.13
-32.64
-36.81
-40.61
-44.13
-47.51
-50.94
-54.59
-58.63
-63.15
-67.95
-72.54
-76.10
-77.75
-76.74
-72.85
-66.44
-58.28
-49.38
-40.55
-32.30
-24.88
-18.41
-12.96
-8.61
-5.41
-3.26
-1.95
-1.21
-0.71
-0.17
0.55
1.54
2.87
4.62
7.02
10.39
15.07
21.35
29.30
38.71
49.15
60.06
70.78
80.68
88.95
94.64
96.69
94.20
86.73
74.56
58.69
40.64
22.18
4.97
-9.58
-20.42
-26.93
-29.12
-27.64
-23.66
-18.58
-13.45
-8.77
-4.34
0.34
5.65
11.48
17.27
22.14
25.26
25.99
23.89
18.75
10.62
-0.11
-12.50
-25.26
-36.89
-46.17
-52.39
-55.42
-55.48
-52.96
-48.18
-41.37
-32.81
-22.85
-11.90
-0.41
11.24
22.79
33.99
44.68
54.92
64.99
75.34
86.41
98.24
110.30
121.47
130.31
135.44
135.94
131.45
122.14
108.48
91.15
71.02
49.15
26.81
5.31
-14.17
-30.85
-44.44
-55.12
-63.42
-69.88
-74.97
-78.90
-81.63
-82.92
-82.56
-80.54
-76.97
-72.21
-66.53
-60.15
-53.17
-45.69
-37.93
-30.28
-23.23
-17.14
-12.23
-8.46
-5.66
-3.65
-2.32
-1.68
-1.78
-2.64
-4.16
-6.19
-8.49
-10.84
-13.05
-15.07
-16.98
-18.95
-21.21
-23.83
-26.76
-29.76
-32.54
-34.90
-36.77
-38.30
-39.61
-40.78
-41.78
-42.54
-43.05
-43.53
-44.33
-45.76
-47.87
-50.38
-52.79
-54.62
-55.64
-55.97
-56.05
-56.28
-56.90
-57.88
-58.92
-59.61
-59.53
-58.37
-56.03
-52.62
-48.52
-44.31
-40.69
-38.16
-36.94
-36.84
-37.54
-38.82
-40.87
-44.24
-49.58
-57.39
-67.63
-79.58
-91.78
-101.99
-107.29
-104.32
-89.99
-62.46
-22.08
28.27
83.66
138.46
187.77
228.22
257.97
275.84
280.59
270.77
245.43
205.21
153.08
94.17
34.61
-19.92
-65.47
-100.28
-124.61
-140.07
-148.79
-152.77
-153.33
-150.98
-145.43
-136.05
-122.40
-104.66
-83.73
-61.11
-38.45
-17.08
2.11
18.68
32.47
43.53
52.05
58.38
63.01
66.38
68.79
70.27
70.73
70.05
68.24
65.63
62.87
60.90
60.79
63.46
69.28
77.84
87.89
97.64
105.26
109.50
109.89
106.82
101.18
94.00
86.15
78.24
70.54
63.11
55.87
48.62
41.08
32.93
23.90
13.79
2.56
-9.53
-21.95
-33.95
-44.74
-53.66
-60.37
-64.74
-66.78
-66.44
-63.48
-57.59
-48.59
-36.71
-22.64
-7.52
7.33
20.82
32.38
42.14
50.64
58.44
65.68
71.87
76.15
77.70
76.27
72.33
66.90
61.03
55.42
50.20
45.06
39.66
33.87
27.83
21.76
15.72
9.46
2.60
-5.08
-13.50
-22.21
-30.65
-38.56
-46.10
-53.83
-62.27
-71.45
-80.71
-88.90
-94.90
-98.23
-99.35
-99.46
-100.06
-102.16
-105.87
-110.33
-114.10
-115.70
-114.17
-109.22
-101.19
-90.81
-78.90
-66.28
-53.73
-42.09
-32.17
-24.59
-19.47
-16.24
-13.73
-10.41
-4.88
3.69
15.38
29.56
45.14
60.89
75.72
88.74
99.32
107.06
111.76
113.49
112.51
109.32
104.49
98.64
92.31
85.94
79.81
74.04
68.66
63.59
58.69
53.81
48.90
43.93
38.90
33.75
28.26
22.28
15.73
8.86
2.15
-3.73
-8.22
-11.03
-12.26
-12.35
-11.81
-11.00
-10.04
-8.83
-7.18
-4.98
-2.28
0.70
3.63
6.27
8.43
10.09
11.37
12.37
13.21
13.86
14.32
14.51
14.51
14.43
14.43
14.57
14.77
14.84
14.62
14.12
13.48
13.01
12.91
13.24
13.81
14.39
14.78
14.93
14.93
14.82
14.54
13.93
12.75
10.85
8.13
4.55
-0.05
-5.81
-12.86
-21.04
-29.75
-38.10
-45.06
-49.75
-51.78
-51.33
-48.99
-45.56
-41.85
-38.38
-35.47
-33.23
-31.71
-30.99
-31.14
-32.14
-33.74
-35.50
-36.83
-37.18
-36.31
-34.40
-31.95
-29.54
-27.52
-25.86
-24.17
-21.91
-18.62
-14.15
-8.68
-2.67
3.45
9.31
14.70
19.47
23.51
26.72
28.97
30.20
30.34
29.46
27.68
25.20
22.23
18.98
15.64
12.28
9.00
5.89
3.04
0.54
-1.55
-3.23
-4.46
-5.13
-5.06
-3.83
-1.07
3.50
9.91
17.98
27.36
37.60
48.28
58.90
69.01
78.16
86.05
92.71
98.49
103.95
109.55
115.50
121.62
127.51
132.77
137.04
140.13
141.82
141.74
139.51
134.97
128.40
120.78
113.42
107.60
104.23
103.61
105.53
109.49
114.66
119.82
123.23
122.63
115.73
100.82
77.55
47.20
12.50
-23.04
-56.12
-84.25
-106.20
-121.98
-132.57
-139.49
-144.41
-148.73
-153.27
-158.27
-163.41
-168.05
-171.47
-173.06
-172.37
-169.15
-163.29
-154.92
-144.45
-132.66
-120.52
-109.02
-98.75
-89.76
-81.54
-73.38
-64.81
-56.01
-47.81
-41.31
-37.36
-36.04
-36.50
-37.26
-36.92
-34.65
-30.51
-25.15
-19.34
-13.61
-8.12
-2.90
1.85
5.67
8.03
8.67
7.77
6.03
4.12
2.36
0.56
-1.81
-5.21
-9.71
-14.87
-20.01
-24.50
-28.03
-30.57
-32.22
-32.90
-32.31
-30.10
-26.17
-20.97
-15.42
-10.47
-6.68
-3.85
-1.19
2.25
7.03
12.97
19.35
25.27
30.04
33.30
34.78
34.02
30.45
23.68
13.97
2.39
-9.43
-20.01
-28.59
-35.32
-40.90
-46.00
-50.80
-54.99
-58.21
-60.43
-62.14
-64.08
-66.85
-70.53
-74.66
-78.46
-81.07
-81.97
-80.96
-78.17
-73.97
-68.82
-63.19
-57.49
-52.03
-47.05
-42.72
-39.14
-36.23
-33.70
-31.14
-28.29
-25.25
-22.64
-21.35
-22.16
-25.39
-30.64
-36.95
-43.19
-48.37
-51.85
-53.38
-53.06
-51.34
-49.01
-46.99
-46.20
-47.30
-50.51
-55.59
-61.88
-68.43
-74.09
-77.80
-78.73
-76.62
-71.78
-65.04
-57.42
-49.78
-42.57
-35.67
-28.56
-20.58
-11.01
0.70
14.85
31.29
49.32
67.87
85.74
102.12
116.87
130.62
144.45
159.61
177.10
197.41
220.25
244.43
267.85
287.75
301.26
306.04
300.93
286.15
262.99
233.35
199.21
162.34
124.34
86.78
51.28
19.40
-7.56
-28.85
-44.34
-54.56
-60.37
-62.77
-62.74
-61.01
-58.22
-54.89
-51.58
-48.79
-46.92
-46.12
-46.27
-46.94
-47.60
-47.78
-47.16
-45.73
-43.75
-41.53
-39.32
-37.17
-34.90
-32.26
-29.13
-25.58
-21.92
-18.51
-15.57
-13.18
-11.22
-9.59
-8.23
-7.30
-7.03
-7.68
-9.39
-12.14
-15.72
-19.80
-24.05
-28.23
-32.30
-36.41
-40.80
-45.65
-50.89
-56.30
-61.45
-65.91
-69.37
-71.61
-72.49
-71.80
-69.38
-65.09
-58.99
-51.33
-42.50
-32.91
-23.00
-13.23
-4.09
3.90
10.31
14.93
17.88
19.54
20.42
20.91
21.24
21.48
21.63
21.75
21.88
22.12
22.37
22.41
21.98
20.92
19.19
16.94
14.44
11.93
9.55
7.33
5.16
2.91
0.51
-2.10
-4.91
-7.91
-11.03
-14.25
-17.49
-20.71
-23.91
-27.17
-30.57
-34.14
-37.76
-41.11
-43.80
-45.48
-46.03
-45.45
-43.98
-41.84
-39.14
-36.00
-32.54
-28.94
-25.41
-22.17
-19.32
-16.95
-15.05
-13.56
-12.34
-11.22
-9.91
-8.05
-5.40
-1.83
2.57
7.60
13.01
18.65
24.44
30.35
36.33
42.33
48.25
53.92
59.12
63.54
66.75
68.35
68.06
65.83
61.89
56.63
50.49
43.76
36.57
28.90
20.67
11.93
2.82
-6.34
-15.14
-23.00
-29.32
-33.48
-35.02
-33.77
-29.94
-24.20
-17.47
-10.73
-4.77
-0.03
3.35
5.51
6.79
7.55
8.11
8.72
9.53
10.66
12.10
13.86
15.94
18.35
21.07
23.96
26.74
29.07
30.61
31.14
30.74
29.65
28.20
26.68
25.18
23.58
21.70
19.41
16.74
13.85
10.93
8.05
5.19
2.23
-0.90
-4.18
-7.43
-10.47
-13.17
-15.54
-17.71
-19.71
-21.46
-22.62
-22.75
-21.38
-18.28
-13.49
-7.35
-0.38
6.94
14.17
20.99
27.11
32.22
35.99
38.18
38.75
37.90
36.08
33.81
31.51
29.43
27.71
26.38
25.54
25.28
25.60
26.32
27.10
27.48
27.04
25.50
22.80
19.15
14.94
10.57
6.46
2.89
-0.06
-2.47
-4.57
-6.63
-8.83
-11.26
-13.90
-16.70
-19.59
-22.55
-25.59
-28.68
-31.70
-34.38
-36.35
-37.25
-36.81
-34.96
-31.79
-27.53
-22.44
-16.81
-10.94
-5.13
0.26
4.93
8.61
11.17
12.68
13.31
13.33
13.06
12.77
12.74
13.13
14.03
15.42
17.20
19.17
21.10
22.74
23.87
24.33
23.98
22.76
20.66
17.72
14.07
9.89
5.50
1.30
-2.26
-4.81
-6.12
-6.24
-5.47
-4.27
-3.13
-2.50
-2.69
-3.83
-5.91
-8.82
-12.35
-16.23
-20.18
-23.93
-27.27
-30.05
-32.08
-33.17
-33.10
-31.67
-28.81
-24.66
-19.55
-13.95
-8.29
-2.85
2.28
7.17
11.93
16.59
21.02
24.98
28.21
30.58
32.17
33.26
34.26
35.58
37.48
40.00
43.00
46.28
49.67
53.10
56.48
59.54
61.78
62.51
61.09
57.20
51.07
43.32
34.90
26.63
19.04
12.35
6.51
1.42
-2.99
-6.83
-10.32
-13.78
-17.55
-21.87
-26.71
-31.76
-36.53
-40.52
-43.43
-45.31
-46.49
-47.49
-48.73
-50.31
-51.97
-53.08
-52.94
-51.03
-47.21
-41.78
-35.25
-28.26
-21.28
-14.61
-8.30
-2.35
3.23
8.35
12.80
16.37
18.90
20.44
21.25
21.78
22.52
23.86
26.06
29.13
32.88
36.93
40.82
44.00
45.97
46.43
45.27
42.72
39.14
35.01
30.63
26.16
21.54
16.65
11.38
5.79
0.06
-5.54
-10.76
-15.43
-19.51
-22.97
-25.90
-28.37
-30.48
-32.40
-34.33
-36.45
-38.81
-41.30
-43.56
-45.08
-45.37
-44.12
-41.25
-37.04
-31.88
-26.21
-20.37
-14.54
-8.83
-3.32
1.80
6.31
9.85
12.17
13.12
12.80
11.52
9.79
8.13
6.99
6.60
6.97
7.90
9.13
10.37
11.40
12.06
12.24
11.89
10.98
9.51
7.59
5.36
3.11
1.18
-0.13
-0.71
-0.64
-0.25
-0.01
-0.31
-1.45
-3.53
-6.44
-9.91
-13.57
-17.03
-19.90
-21.98
-23.27
-23.99
-24.54
-25.31
-26.52
-28.14
-29.86
-31.24
-31.89
-31.52
-30.02
-27.39
-23.70
-19.01
-13.43
-7.14
-0.43
6.23
12.28
17.20
20.61
22.43
22.83
22.23
21.16
20.17
19.67
19.89
20.84
22.36
24.22
26.06
27.61
28.66
29.06
28.76
27.79
26.24
24.24
21.98
19.61
17.30
15.16
13.19
11.31
9.38
7.23
4.73
1.85
-1.36
-4.76
-8.11
-11.26
-14.05
-16.40
-18.28
-19.79
-21.02
-22.22
-23.65
-25.57
-28.04
-30.84
-33.53
-35.52
-36.26
-35.34
-32.69
-28.48
-23.10
-17.01
-10.70
-4.67
0.64
4.88
7.88
9.60
10.18
9.91
9.14
8.31
7.80
7.90
8.78
10.42
12.61
15.08
17.57
19.81
21.68
23.09
23.96
24.33
24.21
23.70
22.89
21.92
20.83
19.68
18.43
16.98
15.23
13.02
10.31
7.09
3.55
-0.11
-3.65
-6.90
-9.82
-12.45
-14.86
-17.13
-19.40
-21.89
-24.84
-28.42
-32.53
-36.76
-40.40
-42.68
-43.01
-41.17
-37.40
-32.22
-26.29
-20.17
-14.33
-9.09
-4.65
-1.10
1.52
3.24
4.14
4.33
4.02
3.46
2.99
2.94
3.55
4.87
6.70
8.69
10.50
11.89
12.82
13.37
13.68
13.84
13.96
14.11
14.48
15.23
16.42
17.90
19.23
19.89
19.44
17.73
14.92
11.44
7.72
4.06
0.63
-2.61
-5.75
-8.95
-12.36
-16.01
-19.77
-23.30
-26.09
-27.52
-27.16
-24.89
-20.94
-15.88
-10.39
-5.13
-0.57
3.03
5.62
7.30
8.29
8.85
9.18
9.46
9.77
10.14
10.60
11.15
11.74
12.30
12.75
13.00
13.04
12.90
12.67
12.43
12.15
11.71
10.99
9.91
8.53
7.01
5.52
4.16
2.95
1.79
0.55
-0.87
-2.51
-4.31
-6.23
-8.22
-10.23
-12.24
-14.23
-16.26
-18.42
-20.85
-23.59
-26.59
-29.57
-32.05
-33.52
-33.55
-31.92
-28.77
-24.52
-19.68
-14.77
-10.15
-6.01
-2.45
0.50
2.83
4.57
5.76
6.56
7.12
7.61
8.11
8.65
9.22
9.84
10.57
11.48
12.64
14.04
15.65
17.35
18.96
20.31
21.25
21.69
21.63
21.18
20.46
19.61
18.68
17.62
16.34
14.76
12.89
10.81
8.61
6.42
4.37
2.51
0.87
-0.61
-2.13
-3.89
-6.11
-8.97
-12.45
-16.35
-20.20
-23.45
-25.47
-25.85
-24.41
-21.28
-16.85
-11.69
-6.37
-1.34
3.12
6.89
9.93
12.25
13.88
14.87
15.32
15.42
15.40
15.49
15.92
16.73
17.89
19.26
20.64
21.93
23.04
24.07
25.18
26.56
28.29
30.36
32.55
34.48
35.77
36.06
35.15
33.04
29.83
25.72
20.93
15.63
9.96
4.00
-2.17
-8.41
-14.49
-20.10
-24.96
-28.87
-31.84
-34.05
-35.81
-37.43
-39.07
-40.79
-42.50
-44.03
-45.11
-45.50
-44.93
-43.17
-40.16
-35.96
-30.84
-25.26
-19.76
-14.83
-10.97
-8.53
-7.67
-8.36
-10.26
-12.82
-15.37
-17.37
-18.48
-18.69
-18.21
-17.34
-16.35
-15.37
-14.43
-13.46
-12.36
-11.08
-9.64
-8.03
-6.28
-4.43
-2.43
-0.16
2.52
5.69
9.25
12.90
16.23
18.86
20.54
21.30
21.42
21.25
21.10
21.06
21.01
20.77
20.22
19.42
18.67
18.35
18.81
20.30
22.91
26.47
30.70
35.22
39.64
43.71
47.27
50.45
53.58
57.07
61.12
65.49
69.43
71.81
71.50
67.78
60.73
51.16
40.37
29.70
20.09
11.90
5.08
-0.60
-5.35
-9.21
-12.19
-14.46
-16.32
-18.21
-20.53
-23.42
-26.70
-29.97
-32.71
-34.61
-35.59
-35.85
-35.73
-35.54
-35.49
-35.65
-35.98
-36.45
-37.04
-37.75
-38.55
-39.35
-40.01
-40.43
-40.60
-40.66
-40.81
-41.35
-42.50
-44.27
-46.46
-48.57
-50.05
-50.32
-49.05
-46.11
-41.66
-36.02
-29.54
-22.64
-15.68
-9.01
-2.91
2.45
6.99
10.76
13.89
16.55
18.90
21.08
23.21
25.35
27.51
29.61
31.57
33.30
34.76
35.99
37.14
38.34
39.72
41.30
42.93
44.44
45.56
46.08
45.83
44.74
42.78
39.92
36.16
31.54
26.18
20.28
14.09
7.87
1.84
-3.77
-8.74
-12.82
-15.87
-17.88
-19.08
-19.92
-20.99
-22.74
-25.42
-28.93
-32.84
-36.57
-39.49
-41.08
-41.11
-39.62
-36.83
-33.12
-28.94
-24.73
-20.87
-17.67
-15.32
-13.86
-13.16
-12.95
-12.93
-12.79
-12.32
-11.42
-10.10
-8.44
-6.61
-4.76
-3.03
-1.60
-0.55
0.16
0.53
0.69
0.71
0.62
0.42
0.11
-0.32
-0.78
-1.17
-1.40
-1.44
-1.34
-1.26
-1.40
-1.94
-2.97
-4.42
-6.15
-7.88
-9.36
-10.42
-11.00
-11.16
-11.12
-11.10
-11.32
-11.89
-12.80
-13.88
-14.81
-15.26
-14.85
-13.36
-10.70
-6.98
-2.46
2.45
7.30
11.66
15.27
18.00
19.84
20.88
21.24
21.04
20.48
19.81
19.26
19.06
19.28
19.86
20.63
21.47
22.28
23.04
23.73
24.30
24.68
24.85
24.84
24.78
24.76
24.81
24.88
24.90
24.82
24.74
24.76
24.94
25.23
25.42
25.29
24.63
23.35
21.43
18.91
15.83
12.21
8.12
3.60
-1.24
-6.31
-11.60
-17.13
-22.83
-28.42
-33.44
-37.28
-39.37
-39.41
-37.45
-33.88
-29.31
-24.37
-19.61
-15.41
-12.00
-9.48
-7.85
-7.01
-6.77
-6.87
-7.07
-7.08
-6.69
-5.77
-4.35
-2.57
-0.72
0.92
2.18
3.04
3.62
4.12
4.64
5.22
5.78
6.24
6.56
6.72
6.78
6.74
6.59
6.28
5.77
5.06
4.16
3.16
2.12
1.08
0.14
-0.69
-1.39
-1.99
-2.55
-3.22
-4.16
-5.60
-7.78
-10.77
-14.51
-18.59
-22.40
-25.20
-26.43
-25.85
-23.58
-20.02
-15.67
-11.03
-6.47
-2.31
1.15
3.68
5.19
5.77
5.72
5.50
5.50
6.00
7.02
8.34
9.69
10.80
11.57
11.98
12.17
12.24
12.28
12.28
12.21
12.06
11.83
11.60
11.41
11.29
11.22
11.14
10.91
10.33
9.26
7.58
5.33
2.72
0.03
-2.48
-4.65
-6.50
-8.19
-9.90
-11.77
-13.87
-16.22
-18.87
-21.88
-25.24
-28.75
-31.99
-34.38
-35.34
-34.50
-31.89
-27.84
-22.93
-17.68
-12.50
-7.57
-2.99
1.17
4.81
7.81
10.11
11.81
13.09
14.15
15.06
15.74
15.99
15.66
14.76
13.45
11.97
10.52
9.05
7.43
5.54
3.36
1.10
-0.94
-2.49
-3.48
-4.04
-4.36
-4.69
-5.12
-5.76
-6.70
-8.10
-10.10
-12.78
-16.01
-19.46
-22.71
-25.34
-27.22
-28.42
-29.30
-30.36
-32.07
-34.73
-38.35
-42.60
-46.91
-50.65
-53.23
-54.30
-53.90
-52.30
-49.98
-47.51
-45.48
-44.29
-44.16
-45.05
-46.71
-48.88
-51.29
-53.87
-56.63
-59.61
-62.68
-65.53
-67.68
-68.75
-68.64
-67.41
-65.25
-62.08
-57.46
-50.68
-40.96
-27.62
-10.33
10.98
36.06
64.19
94.16
124.12
151.85
175.18
192.56
203.39
207.94
207.04
201.57
192.30
179.81
164.75
147.99
130.59
113.68
98.11
84.33
72.30
61.71
52.16
43.29
35.05
27.58
21.19
16.16
12.63
10.48
9.44
9.16
9.29
9.66
10.22
10.95
11.84
12.75
13.32
13.22
12.15
10.03
7.17
4.05
1.17
-1.18
-3.03
-4.72
-6.58
-8.77
-11.14
-13.34
-15.15
-16.59
-17.96
-19.68
-21.89
-24.37
-26.57
-28.04
-28.61
-28.57
-28.42
-28.51
-28.87
-29.12
-28.80
-27.74
-26.31
-25.24
-25.25
-26.66
-29.11
-31.85
-33.99
-34.98
-34.74
-33.52
-31.60
-29.05
-25.70
-21.26
-15.71
-9.37
-2.87
3.11
8.08
11.96
14.97
17.46
19.78
22.05
24.22
26.14
27.64
28.63
29.12
29.22
29.06
28.85
28.72
28.72
28.84
29.08
29.49
30.19
31.23
32.52
33.74
34.45
34.34
33.39
31.83
30.04
28.22
26.19
23.49
19.58
14.11
7.15
-0.95
-9.77
-19.07
-28.82
-39.09
-49.86
-60.96
-72.03
-82.66
-92.41
-100.83
-107.42
-111.55
-112.60
-110.18
-104.29
-95.42
-84.53
-72.81
-61.47
-51.48
-43.48
-37.64
-33.78
-31.39
-29.85
-28.61
-27.34
-25.95
-24.55
-23.30
-22.29
-21.47
-20.63
-19.57
-18.15
-16.32
-14.08
-11.36
-7.96
-3.62
1.87
8.54
16.04
23.74
30.87
36.72
40.96
43.67
45.23
46.15
46.86
47.61
48.43
49.25
49.92
50.43
50.91
51.46
52.12
52.66
52.57
51.11
47.62
41.66
33.31
23.12
11.93
0.70
-9.77
-18.92
-26.43
-32.17
-36.17
-38.68
-40.05
-40.76
-41.19
-41.49
-41.56
-41.04
-39.47
-36.48
-31.81
-25.37
-17.20
-7.44
3.57
15.23
26.77
37.37
46.55
54.28
61.06
67.52
74.09
80.60
86.37
90.44
91.92
90.36
85.74
78.49
69.20
58.51
47.02
35.28
23.80
13.00
3.15
-5.77
-13.97
-21.77
-29.47
-37.21
-45.01
-52.74
-60.32
-67.70
-74.86
-81.83
-88.54
-94.77
-100.22
-104.51
-107.24
-108.13
-107.03
-104.01
-99.34
-93.49
-87.01
-80.35
-73.77
-67.36
-61.07
-54.82
-48.59
-42.43
-36.44
-30.72
-25.28
-20.05
-14.88
-9.54
-3.77
2.58
9.45
16.44
22.85
27.78
30.33
29.71
25.48
17.56
6.38
-7.17
-21.68
-35.38
-46.49
-53.53
-55.62
-52.58
-44.89
-33.32
-18.78
-2.18
15.46
33.06
49.37
63.32
74.23
81.96
86.81
89.28
89.66
87.95
83.94
77.51
68.96
59.15
49.28
40.58
33.87
29.36
26.74
25.33
24.35
23.14
21.32
18.68
15.28
11.29
6.96
2.55
-1.61
-5.18
-7.74
-8.87
-8.27
-5.94
-2.19
2.34
6.85
10.68
13.41
15.08
16.05
16.83
17.84
19.21
20.73
21.93
22.36
21.76
20.22
18.09
15.78
13.56
11.42
9.22
6.78
4.08
1.28
-1.36
-3.64
-5.47
-6.81
-7.64
-7.80
-7.13
-5.65
-3.69
-1.92
-1.09
-1.65
-3.56
-6.31
-9.08
-11.14
-12.09
-11.81
-10.43
-8.17
-5.18
-1.66
2.10
5.72
8.83
11.15
12.64
13.39
13.60
13.50
13.27
13.01
12.73
12.43
12.09
11.73
11.35
10.98
10.69
10.47
10.33
10.24
10.13
9.89
9.45
8.67
7.54
6.12
4.48
2.72
0.87
-1.13
-3.37
-5.87
-8.55
-11.22
-13.72
-15.97
-18.05
-20.16
-22.49
-25.15
-28.06
-30.96
-33.49
-35.25
-35.94
-35.30
-33.26
-29.86
-25.33
-20.03
-14.40
-8.93
-4.03
0.03
3.17
5.43
6.95
7.83
8.22
8.22
8.00
7.77
7.70
7.94
8.46
9.15
9.80
10.27
10.49
10.52
10.46
10.35
10.19
9.93
9.51
8.88
7.99
6.78
5.21
3.30
1.08
-1.33
-3.80
-6.28
-8.79
-11.37
-14.07
-16.83
-19.48
-21.78
-23.44
-24.22
-23.92
-22.41
-19.70
-15.94
-11.39
-6.45
-1.50
3.18
7.36
10.95
13.92
16.20
17.72
18.42
18.34
17.61
16.49
15.27
14.18
13.42
13.06
13.07
13.41
13.97
14.63
15.18
15.48
15.37
14.78
13.65
12.02
9.94
7.46
4.69
1.77
-1.12
-3.76
-6.03
-7.90
-9.37
-10.52
-11.43
-12.18
-12.92
-13.91
-15.43
-17.69
-20.59
-23.72
-26.38
-27.78
-27.32
-24.80
-20.42
-14.72
-8.34
-1.85
4.36
10.08
15.24
19.81
23.84
27.34
30.34
32.77
34.49
35.30
34.98
33.46
30.79
27.16
22.78
17.85
12.53
6.94
1.22
-4.42
-9.68
-14.31
-18.11
-21.04
-23.14
-24.54
-25.48
-26.16
-26.71
-27.22
-27.67
-28.03
-28.35
-28.77
-29.51
-30.82
-32.75
-35.10
-37.40
-38.99
-39.28
-37.91
-34.78
-30.15
-24.40
-17.95
-11.16
-4.33
2.31
8.60
14.35
19.40
23.60
26.80
28.93
29.93
29.79
28.59
26.51
23.81
20.83
17.94
15.44
13.51
12.16
11.30
10.78
10.37
9.89
9.17
8.06
6.46
4.33
1.76
-1.00
-3.51
-5.41
-6.50
-6.87
-6.88
-7.06
-7.77
-9.08
-10.70
-12.07
-12.60
-11.93
-9.94
-6.77
-2.67
2.10
7.29
12.60
17.72
22.37
26.36
29.66
32.27
34.26
35.62
36.23
36.02
34.98
33.27
31.19
29.02
26.84
24.62
22.22
19.63
17.02
14.74
13.23
12.78
13.49
15.19
17.55
20.16
22.62
24.52
25.53
25.31
23.64
20.49
16.05
10.65
4.70
-1.41
-7.33
-12.72
-17.21
-20.42
-21.98
-21.66
-19.56
-16.03
-11.61
-6.92
-2.51
1.16
3.71
4.92
4.64
2.90
-0.08
-3.86
-7.97
-11.91
-15.32
-18.10
-20.31
-22.15
-23.84
-25.50
-27.10
-28.49
-29.42
-29.64
-28.96
-27.37
-25.01
-22.18
-19.25
-16.55
-14.35
-12.77
-11.80
-11.34
-11.19
-11.18
-11.18
-11.18
-11.22
-11.41
-11.81
-12.50
-13.52
-14.82
-16.35
-17.95
-19.37
-20.23
-20.19
-18.96
-16.56
-13.32
-9.76
-6.47
-3.80
-1.84
-0.32
1.10
2.73
4.69
6.80
8.75
10.22
11.02
11.14
10.75
10.20
9.93
10.51
12.44
16.09
21.47
28.16
35.37
42.10
47.43
50.72
51.81
50.83
48.15
44.15
39.14
33.36
27.07
20.47
13.80
7.28
1.08
-4.67
-9.93
-14.74
-19.29
-23.71
-28.13
-32.44
-36.36
-39.50
-41.50
-42.11
-41.28
-39.14
-35.83
-31.49
-26.30
-20.47
-14.35
-8.39
-2.94
1.71
5.55
8.72
11.39
13.70
15.64
17.05
17.79
17.81
17.23
16.34
15.49
14.88
14.66
14.85
15.41
16.28
17.37
18.51
19.46
19.94
19.73
18.73
17.04
14.86
12.44
10.04
7.83
5.93
4.46
3.51
3.05
2.91
2.78
2.27
1.06
-0.93
-3.61
-6.68
-9.81
-12.70
-15.14
-16.90
-17.69
-17.23
-15.39
-12.37
-8.70
-5.13
-2.32
-0.53
0.46
1.18
2.23
3.98
6.48
9.55
12.93
16.40
19.84
23.14
26.02
28.15
29.16
28.82
27.15
24.42
20.94
17.03
12.87
8.48
3.85
-1.08
-6.28
-11.63
-16.93
-21.85
-26.00
-29.07
-30.82
-31.23
-30.48
-28.97
-27.12
-25.36
-23.89
-22.67
-21.51
-20.12
-18.31
-16.09
-13.72
-11.53
-9.82
-8.75
-8.28
-8.26
-8.53
-8.97
-9.56
-10.30
-11.15
-12.07
-13.07
-14.21
-15.60
-17.32
-19.32
-21.37
-23.05
-23.89
-23.50
-21.66
-18.44
-14.14
-9.20
-4.19
0.45
4.38
7.46
9.64
10.99
11.59
11.55
11.03
10.25
9.52
9.11
9.16
9.66
10.48
11.44
12.42
13.31
14.08
14.64
14.87
14.62
13.80
12.48
10.83
9.07
7.35
5.72
4.15
2.54
0.86
-0.77
-2.21
-3.32
-4.02
-4.40
-4.63
-4.92
-5.46
-6.31
-7.43
-8.71
-10.07
-11.41
-12.68
-13.92
-15.17
-16.57
-18.20
-20.05
-22.03
-23.85
-25.08
-25.29
-24.16
-21.60
-17.80
-13.12
-8.03
-2.95
1.82
6.13
9.86
12.99
15.45
17.22
18.34
18.93
19.14
19.12
18.99
18.74
18.33
17.73
16.97
16.15
15.42
14.89
14.62
14.57
14.66
14.81
14.95
14.98
14.75
14.08
12.82
10.96
8.62
6.06
3.56
1.34
-0.53
-2.08
-3.46
-4.79
-6.21
-7.78
-9.50
-11.30
-13.02
-14.53
-15.76
-16.80
-17.81
-19.03
-20.62
-22.58
-24.69
-26.56
-27.70
-27.66
-26.16
-23.21
-19.09
-14.25
-9.19
-4.29
0.23
4.28
7.80
10.77
13.15
14.96
16.33
17.44
18.42
19.31
20.03
20.45
20.54
20.37
20.14
20.16
20.60
21.51
22.74
24.04
25.15
25.85
26.02
25.61
24.65
23.16
21.21
18.88
16.32
13.69
11.17
8.89
6.87
5.02
3.15
1.08
-1.32
-4.05
-6.99
-9.93
-12.69
-15.15
-17.31
-19.28
-21.23
-23.27
-25.50
-27.96
-30.56
-33.13
-35.41
-37.03
-37.63
-36.90
-34.65
-30.88
-25.81
-19.83
-13.45
-7.15
-1.36
3.65
7.76
10.87
12.89
13.65
13.03
11.10
8.26
5.17
2.58
1.06
0.80
1.63
3.20
5.17
7.42
9.91
12.58
15.21
17.40
18.77
19.08
18.43
17.07
15.38
13.62
11.91
10.30
8.79
7.39
6.13
4.94
3.72
2.33
0.67
-1.23
-3.32
-5.51
-7.76
-10.08
-12.46
-14.83
-17.13
-19.27
-21.31
-23.39
-25.66
-28.18
-30.72
-32.88
-34.16
-34.17
-32.70
-29.75
-25.52
-20.26
-14.32
-8.00
-1.68
4.29
9.55
13.79
16.82
18.58
19.13
18.68
17.51
15.93
14.19
12.49
10.93
9.57
8.49
7.81
7.62
7.95
8.70
9.58
10.22
10.19
9.24
7.37
4.93
2.50
0.68
-0.10
0.24
1.43
2.96
4.27
4.93
4.76
3.77
2.05
-0.32
-3.32
-6.85
-10.85
-15.07
-19.26
-23.15
-26.46
-28.92
-30.21
-29.98
-27.90
-23.86
-17.97
-10.72
-2.83
4.93
11.95
17.84
22.46
25.83
28.00
29.05
29.02
28.02
26.25
24.01
21.60
19.24
17.04
14.97
13.02
11.16
9.40
7.79
6.35
5.06
3.91
2.82
1.75
0.65
-0.49
-1.66
-2.81
-3.86
-4.73
-5.42
-6.09
-7.01
-8.46
-10.58
-13.32
-16.40
-19.51
-22.39
-24.95
-27.24
-29.41
-31.55
-33.72
-35.88
-37.90
-39.61
-40.68
-40.64
-39.00
-35.41
-29.79
-22.48
-14.17
-5.67
2.28
9.20
14.92
19.48
23.01
25.67
27.59
28.86
29.58
29.79
29.53
28.79
27.56
25.88
23.91
21.95
20.49
20.07
21.11
23.67
27.28
31.01
33.71
34.42
32.75
29.00
23.99
18.71
13.87
9.78
6.34
3.27
0.32
-2.65
-5.65
-8.66
-11.76
-15.03
-18.55
-22.31
-26.21
-30.07
-33.62
-36.56
-38.52
-39.20
-38.32
-35.80
-31.73
-26.40
-20.27
-13.86
-7.64
-2.01
2.82
6.73
9.73
11.88
13.29
14.09
14.42
14.46
14.37
14.29
14.27
14.33
14.45
14.66
15.05
15.81
17.18
19.32
22.22
25.60
28.99
31.80
33.57
34.01
33.16
31.21
28.38
24.85
20.68
15.84
10.38
4.38
-1.89
-8.14
-14.07
-19.46
-24.20
-28.27
-31.77
-34.78
-37.32
-39.28
-40.44
-40.50
-39.15
-36.25
-31.85
-26.27
-20.00
-13.58
-7.51
-2.15
2.29
5.80
8.35
9.97
10.70
10.57
9.78
8.59
7.33
6.35
5.85
5.83
6.16
6.62
7.03
7.38
7.70
8.06
8.47
8.85
9.07
9.04
8.76
8.29
7.71
7.01
6.13
4.92
3.35
1.46
-0.58
-2.55
-4.34
-5.99
-7.70
-9.71
-12.21
-15.15
-18.29
-21.16
-23.19
-23.93
-23.06
-20.52
-16.51
-11.44
-5.86
-0.32
4.76
9.13
12.75
15.72
18.09
19.88
21.00
21.36
21.02
20.14
19.04
17.98
17.16
16.64
16.35
16.19
16.14
16.17
16.27
16.39
16.39
16.08
15.33
14.09
12.46
10.62
8.74
6.92
5.18
3.47
1.76
0.04
-1.66
-3.34
-5.03
-6.85
-8.93
-11.32
-14.02
-17.02
-20.23
-23.54
-26.78
-29.59
-31.48
-32.00
-30.80
-27.88
-23.59
-18.44
-13.00
-7.75
-2.88
1.50
5.40
8.79
11.63
13.84
15.43
16.44
16.96
17.16
17.18
17.13
17.07
16.98
16.80
16.46
15.95
15.37
14.92
14.77
15.03
15.60
16.12
16.11
15.18
13.12
10.10
6.59
3.19
0.43
-1.40
-2.28
-2.42
-2.08
-1.48
-0.74
0.04
0.72
1.09
0.97
0.25
-1.06
-2.84
-4.96
-7.34
-9.85
-12.26
-14.19
-15.14
-14.68
-12.65
-9.36
-5.38
-1.43
1.95
4.51
6.34
7.59
8.41
8.78
8.55
7.63
6.02
3.93
1.70
-0.31
-1.86
-2.88
-3.40
-3.50
-3.27
-2.75
-1.95
-0.89
0.45
2.04
3.84
5.77
7.69
9.37
10.57
11.03
10.57
9.11
6.69
3.41
-0.60
-5.12
-9.89
-14.54
-18.77
-22.28
-24.98
-26.92
-28.30
-29.43
-30.54
-31.82
-33.25
-34.64
-35.64
-35.71
-34.32
-31.16
-26.23
-19.94
-12.99
-6.19
-0.16
4.79
8.73
11.91
14.62
17.07
19.29
21.19
22.64
23.59
24.09
24.23
24.16
23.99
23.83
23.83
24.18
25.08
26.60
28.55
30.42
31.49
31.07
28.84
24.93
19.86
14.30
8.83
3.76
-0.80
-4.85
-8.36
-11.25
-13.47
-15.09
-16.27
-17.32
-18.52
-20.02
-21.85
-23.89
-25.97
-27.95
-29.80
-31.56
-33.24
-34.77
-35.85
-36.03
-34.84
-32.00
-27.47
-21.55
-14.69
-7.39
-0.09
6.79
12.91
17.95
21.71
24.14
25.40
25.85
25.89
25.88
26.01
26.31
26.72
27.15
27.57
27.98
28.38
28.69
28.63
27.85
25.99
22.90
18.75
14.00
9.28
5.15
1.90
-0.48
-2.24
-3.70
-5.11
-6.61
-8.23
-9.95
-11.75
-13.64
-15.61
-17.61
-19.57
-21.44
-23.23
-24.97
-26.71
-28.46
-30.08
-31.24
-31.55
-30.62
-28.26
-24.58
-19.90
-14.73
-9.55
-4.70
-0.37
3.36
6.51
9.02
10.79
11.69
11.61
10.54
8.64
6.22
3.65
1.41
-0.10
-0.53
0.29
2.37
5.54
9.41
13.51
17.28
20.26
22.11
22.66
21.91
19.95
17.02
13.38
9.33
5.12
0.86
-3.46
-7.92
-12.57
-17.37
-22.13
-26.62
-30.63
-34.03
-36.81
-38.94
-40.35
-40.91
-40.40
-38.69
-35.73
-31.69
-26.85
-21.64
-16.46
-11.69
-7.57
-4.13
-1.24
1.36
3.88
6.43
8.93
11.26
13.35
15.18
16.87
18.48
20.01
21.40
22.53
23.37
23.98
24.47
24.94
25.34
25.55
25.42
24.88
24.05
23.26
22.87
23.19
24.24
25.67
26.89
27.26
26.33
24.04
20.74
16.92
13.09
9.49
6.09
2.72
-0.90
-4.92
-9.44
-14.36
-19.48
-24.40
-28.55
-31.34
-32.21
-30.93
-27.66
-22.92
-17.39
-11.84
-6.82
-2.69
0.52
2.96
4.89
6.60
8.22
9.77
11.15
12.25
13.04
13.57
13.93
14.12
14.01
13.43
12.24
10.40
8.07
5.50
2.95
0.67
-1.12
-2.21
-2.44
-1.87
-0.70
0.64
1.72
2.23
2.12
1.62
1.04
0.64
0.47
0.35
0.00
-0.77
-2.02
-3.69
-5.59
-7.68
-9.95
-12.52
-15.47
-18.81
-22.33
-25.68
-28.40
-30.00
-30.14
-28.63
-25.47
-20.93
-15.41
-9.42
-3.53
1.75
6.04
9.06
10.73
11.19
10.73
9.75
8.61
7.58
6.78
6.22
5.82
5.55
5.41
5.36
5.36
5.30
5.12
4.84
4.64
4.75
5.35
6.44
7.75
8.86
9.35
8.97
7.77
6.05
4.21
2.60
1.35
0.34
-0.64
-1.83
-3.41
-5.44
-7.90
-10.67
-13.57
-16.27
-18.34
-19.24
-18.53
-16.09
-12.34
-8.17
-4.75
-3.03
-3.36
-5.31
-7.86
-9.85
-10.41
-9.24
-6.57
-2.93
1.11
5.13
8.79
11.86
14.15
15.54
16.02
15.73
14.87
13.65
12.29
10.95
9.81
8.96
8.43
8.08
7.73
7.22
6.53
5.84
5.43
5.48
6.04
6.91
7.78
8.31
8.31
7.68
6.48
4.80
2.78
0.59
-1.56
-3.48
-4.98
-6.02
-6.68
-7.12
-7.62
-8.38
-9.45
-10.75
-12.10
-13.34
-14.40
-15.36
-16.37
-17.61
-19.21
-21.18
-23.48
-25.92
-28.15
-29.68
-30.02
-28.85
-26.11
-22.09
-17.30
-12.38
-7.75
-3.63
-0.01
3.22
6.18
8.83
11.10
12.84
14.01
14.68
15.04
15.35
15.76
16.34
16.97
17.47
17.74
17.82
17.87
18.09
18.62
19.47
20.59
21.83
23.05
24.10
24.83
25.13
24.91
24.25
23.36
22.58
22.17
22.24
22.64
22.84
22.16
19.89
15.63
9.44
1.92
-5.96
-13.15
-18.77
-22.39
-24.02
-24.06
-23.05
-21.63
-20.40
-19.89
-20.42
-22.03
-24.36
-26.72
-28.27
-28.31
-26.51
-23.05
-18.41
-13.20
-7.88
-2.65
2.46
7.39
11.82
15.15
16.65
15.85
12.73
7.88
2.33
-2.88
-6.95
-9.62
-11.11
-11.85
-12.24
-12.50
-12.69
-12.82
-13.01
-13.42
-14.18
-15.20
-16.25
-16.94
-16.91
-16.04
-14.50
-12.68
-11.07
-10.06
-9.79
-10.19
-11.03
-12.08
-13.19
-14.33
-15.61
-17.18
-19.24
-21.89
-25.18
-29.10
-33.60
-38.62
-44.16
-50.20
-56.70
-63.54
-70.43
-76.95
-82.57
-86.73
-88.91
-88.66
-85.72
-80.22
-72.82
-64.69
-57.31
-51.98
-49.43
-49.68
-51.96
-54.87
-56.42
-54.24
-45.87
-29.27
-3.53
30.68
71.07
114.35
157.09
196.44
230.20
256.48
273.18
277.99
269.07
246.13
211.24
168.71
124.00
82.10
46.31
17.67
-4.48
-21.50
-34.48
-43.89
-49.90
-52.89
-53.71
-53.50
-53.24
-53.14
-52.71
-51.16
-48.22
-44.61
-41.94
-42.10
-46.16
-53.77
-62.92
-70.72
-74.38
-72.23
-64.25
-52.04
-38.30
-25.81
-16.54
-11.00
-8.18
-5.99
-2.09
5.28
16.81
31.82
48.60
64.73
77.53
84.63
84.36
76.33
61.52
42.25
21.38
1.60
-15.33
-28.86
-39.27
-47.25
-53.36
-57.86
-60.62
-61.36
-59.79
-55.85
-49.72
-41.74
-32.28
-21.60
-9.69
3.76
19.06
36.12
54.20
71.76
87.03
98.48
105.34
107.71
106.20
101.37
93.44
82.33
68.14
51.77
34.97
20.06
9.19
3.52
2.85
5.67
9.52
11.55
9.19
0.72
-14.14
-34.00
-55.98
-76.47
-92.16
-101.00
-102.59
-97.87
-88.51
-76.17
-62.15
-47.61
-33.69
-21.51
-12.00
-5.47
-1.44
1.12
3.42
6.27
9.77
13.36
16.19
17.48
16.96
14.91
11.99
9.04
6.69
5.26
4.63
4.38
4.04
3.22
1.86
0.16
-1.53
-2.86
-3.67
-3.90
-3.56
-2.59
-0.88
1.74
5.36
9.95
15.29
21.03
26.74
32.03
36.56
40.13
42.60
43.99
44.42
44.11
43.34
42.42
41.57
40.90
40.40
39.94
39.39
38.61
37.58
36.27
34.65
32.64
30.17
27.20
23.80
20.13
16.33
12.57
8.90
5.30
1.72
-1.87
-5.49
-9.18
-12.97
-16.92
-21.04
-25.22
-29.15
-32.33
-34.22
-34.40
-32.73
-29.41
-24.89
-19.77
-14.59
-9.73
-5.40
-1.73
1.21
3.39
4.78
5.46
5.54
5.19
4.57
3.88
3.24
2.78
2.59
2.66
2.97
3.38
3.79
4.08
4.18
4.07
3.71
3.01
1.86
0.20
-1.96
-4.45
-7.06
-9.63
-12.02
-14.23
-16.32
-18.38
-20.49
-22.71
-25.08
-27.61
-30.18
-32.51
-34.20
-34.78
-33.87
-31.32
-27.29
-22.17
-16.51
-10.81
-5.52
-0.95
2.68
5.26
6.72
7.09
6.54
5.35
3.84
2.35
1.10
0.14
-0.53
-1.06
-1.54
-2.03
-2.55
-3.04
-3.49
-3.84
-4.03
-3.98
-3.62
-2.99
-2.27
-1.79
-1.82
-2.41
-3.34
-4.10
-4.23
-3.56
-2.39
-1.43
-1.54
-3.26
-6.63
-11.12
-15.82
-19.85
-22.57
-23.72
-23.44
-22.14
-20.25
-18.19
-16.27
-14.70
-13.59
-12.96
-12.74
-12.79
-12.94
-13.02
-12.96
-12.80
-12.60
-12.43
-12.21
-11.71
-10.66
-8.79
-5.97
-2.21
2.27
7.22
12.27
17.10
21.42
24.95
27.46
28.78
28.86
27.71
25.46
22.21
18.14
13.43
8.26
2.83
-2.66
-7.99
-12.94
-17.22
-20.51
-22.43
-22.63
-20.92
-17.29
-12.03
-5.64
1.31
8.34
15.10
21.38
27.00
31.77
35.49
37.96
39.12
39.08
38.18
36.86
35.58
34.57
33.87
33.25
32.44
31.15
29.37
27.30
25.32
23.81
23.03
22.95
23.30
23.61
23.39
22.30
20.19
17.18
13.60
9.84
6.23
2.92
-0.25
-3.57
-7.47
-12.27
-18.05
-24.55
-31.19
-37.13
-41.52
-43.74
-43.51
-41.02
-36.80
-31.51
-25.82
-20.19
-14.87
-10.03
-5.87
-2.72
-1.01
-1.16
-3.49
-8.07
-14.72
-22.91
-31.85
-40.52
-47.77
-52.55
-54.10
-52.08
-46.58
-38.10
-27.45
-15.50
-3.19
8.61
19.11
27.67
33.91
37.80
39.60
39.82
38.98
37.56
35.83
33.98
32.13
30.46
29.17
28.41
28.18
28.32
28.60
28.89
29.24
29.93
31.31
33.56
36.55
39.86
42.91
45.12
46.18
45.98
44.58
42.09
38.55
34.03
28.68
22.82
16.96
11.68
7.45
4.49
2.71
1.81
1.36
0.98
0.40
-0.54
-1.94
-3.82
-6.25
-9.26
-12.85
-16.94
-21.35
-25.86
-30.20
-34.10
-37.32
-39.74
-41.32
-42.09
-42.11
-41.44
-40.16
-38.49
-36.68
-35.01
-33.68
-32.74
-31.98
-31.00
-29.28
-26.34
-21.92
-16.00
-8.86
-1.04
6.72
13.65
19.04
22.51
23.99
23.75
22.27
20.07
17.64
15.26
13.10
11.14
9.37
7.75
6.22
4.69
3.01
1.08
-1.10
-3.38
-5.53
-7.26
-8.41
-8.98
-9.19
-9.39
-9.87
-10.82
-12.18
-13.73
-15.11
-15.94
-15.98
-15.16
-13.56
-11.38
-8.89
-6.46
-4.45
-3.19
-2.90
-3.59
-5.03
-6.85
-8.74
-10.58
-12.41
-14.32
-16.28
-17.95
-18.87
-18.63
-17.05
-14.32
-10.80
-6.92
-2.95
0.95
4.66
8.02
10.77
12.63
13.46
13.33
12.47
11.23
9.94
8.88
8.27
8.20
8.66
9.50
10.54
11.50
12.16
12.36
12.07
11.37
10.33
9.10
7.81
6.61
5.56
4.71
4.03
3.45
2.90
2.27
1.52
0.53
-0.75
-2.37
-4.31
-6.47
-8.72
-10.91
-12.98
-14.91
-16.76
-18.60
-20.53
-22.63
-25.00
-27.71
-30.66
-33.59
-36.02
-37.33
-36.96
-34.55
-30.12
-24.08
-17.15
-10.09
-3.62
1.83
6.11
9.33
11.64
13.19
14.05
14.20
13.72
12.76
11.58
10.50
9.77
9.48
9.56
9.86
10.23
10.60
10.91
11.17
11.38
11.48
11.45
11.23
10.80
10.10
9.18
8.00
6.64
5.19
3.76
2.42
1.17
-0.06
-1.37
-2.79
-4.35
-5.98
-7.58
-9.11
-10.52
-11.84
-13.12
-14.41
-15.75
-17.24
-18.99
-21.09
-23.57
-26.27
-28.78
-30.51
-30.81
-29.22
-25.65
-20.37
-13.98
-7.19
-0.65
5.19
10.01
13.71
16.31
17.91
18.71
18.87
18.58
18.01
17.29
16.57
15.94
15.50
15.30
15.31
15.48
15.77
16.15
16.61
17.14
17.69
18.17
18.50
18.57
18.29
17.62
16.56
15.19
13.64
12.08
10.63
9.39
8.38
7.59
6.97
6.44
5.91
5.29
4.50
3.54
2.50
1.56
0.88
0.57
0.59
0.76
0.80
0.53
-0.02
-0.50
-0.25
1.51
5.49
12.16
21.60
33.52
47.33
62.19
77.14
91.06
102.76
111.16
115.54
115.75
112.32
106.23
98.51
89.89
80.47
69.83
57.46
43.23
27.69
12.06
-2.21
-13.81
-21.94
-26.47
-27.87
-26.94
-24.59
-21.47
-17.83
-13.21
-6.47
4.09
20.13
42.64
71.25
103.67
135.80
162.27
177.81
178.81
164.48
137.18
101.61
63.17
26.20
-6.91
-35.73
-60.85
-82.83
-101.65
-116.91
-128.45
-136.87
-143.50
-149.78
-156.37
-162.78
-167.60
-169.20
-166.49
-159.57
-149.53
-138.07
-126.73
-116.47
-107.45
-99.31
-91.57
-84.02
-76.79
-70.28
-64.95
-61.06
-58.60
-57.29
-56.69
-56.31
-55.66
-54.39
-52.37
-49.65
-46.47
-43.17
-40.17
-37.75
-36.09
-35.13
-34.67
-34.42
-34.05
-33.29
-31.92
-29.84
-27.02
-23.53
-19.49
-15.10
-10.70
-6.61
-3.08
-0.23
2.01
3.80
5.27
6.43
7.12
7.13
6.24
4.39
1.69
-1.52
-4.72
-7.25
-8.44
-7.81
-5.18
-0.83
4.65
10.49
15.99
20.65
24.28
26.85
28.45
29.08
28.73
27.35
25.04
22.05
18.80
15.74
13.26
11.47
10.34
9.66
9.16
8.64
7.95
6.96
5.59
3.81
1.72
-0.42
-2.30
-3.72
-4.73
-5.69
-7.07
-9.30
-12.51
-16.54
-21.00
-25.39
-29.28
-32.26
-33.94
-33.92
-31.89
-27.80
-22.02
-15.34
-8.86
-3.69
-0.61
0.12
-1.12
-3.57
-6.34
-8.73
-10.41
-11.51
-12.37
-13.43
-14.98
-17.15
-19.85
-22.88
-25.86
-28.39
-29.99
-30.27
-29.01
-26.21
-22.10
-17.04
-11.39
-5.43
0.68
6.91
13.19
19.44
25.44
30.92
35.59
39.24
41.82
43.36
43.98
43.76
42.71
40.86
38.27
35.10
31.66
28.24
25.04
22.13
19.37
16.58
13.60
10.31
6.66
2.62
-1.80
-6.49
-11.16
-15.24
-18.02
-18.83
-17.26
-13.36
-7.62
-0.90
5.83
11.79
16.53
19.94
22.18
23.52
24.17
24.21
23.57
22.09
19.69
16.39
12.47
8.42
4.75
1.88
-0.11
-1.52
-2.94
-4.99
-8.10
-12.32
-17.30
-22.53
-27.55
-32.22
-36.72
-41.56
-47.42
-55.17
-65.69
-79.51
-96.44
-115.07
-132.59
-145.36
-149.89
-144.02
-127.71
-102.90
-72.71
-40.47
-8.83
20.33
45.59
65.59
79.00
84.73
82.60
73.65
59.90
43.90
27.95
13.62
1.67
-7.65
-14.42
-18.79
-20.72
-20.07
-16.54
-9.77
0.46
14.06
30.35
47.99
65.16
79.94
90.65
96.33
96.77
92.64
85.29
76.64
68.67
63.07
60.63
60.99
62.89
64.69
65.07
63.60
60.71
57.30
54.19
51.70
49.59
47.41
44.98
42.39
40.09
38.57
38.09
38.56
39.64
40.96
42.27
43.56
44.93
46.44
47.98
49.25
49.88
49.60
48.36
46.33
43.80
41.09
38.42
35.90
33.48
31.03
28.35
25.24
21.52
17.16
12.28
7.08
1.86
-3.16
-7.88
-12.32
-16.51
-20.43
-23.90
-26.64
-28.37
-28.92
-28.38
-27.01
-25.17
-23.12
-21.00
-18.89
-16.85
-15.10
-13.87
-13.36
-13.46
-13.78
-13.59
-12.13
-8.82
-3.47
3.62
11.80
20.17
27.83
34.08
38.48
40.93
41.52
40.48
38.04
34.50
30.18
25.51
20.89
16.68
13.02
9.86
7.08
4.53
2.24
0.32
-1.05
-1.79
-1.96
-1.77
-1.51
-1.42
-1.65
-2.23
-3.13
-4.24
-5.42
-6.55
-7.57
-8.53
-9.50
-10.60
-11.96
-13.63
-15.56
-17.65
-19.71
-21.61
-23.23
-24.51
-25.51
-26.42
-27.51
-29.05
-31.25
-34.03
-37.04
-39.71
-41.28
-41.13
-38.90
-34.61
-28.69
-21.82
-14.74
-8.08
-2.29
2.43
6.05
8.62
10.28
11.22
11.61
11.77
11.97
12.41
13.20
14.25
15.39
16.47
17.38
18.13
18.74
19.21
19.44
19.33
18.79
17.85
16.68
15.50
14.48
13.69
13.02
12.29
11.29
9.82
7.80
5.24
2.29
-0.80
-3.74
-6.32
-8.46
-10.29
-12.02
-13.90
-16.09
-18.59
-21.33
