1571133129.00
64.000000
-0.00
-0.00
-0.00
-0.00
-0.00
-0.00
-0.00
-0.00
-0.00
-0.00
0.00
0.01
0.01
-0.00
-0.03
-0.05
-0.05
0.00
0.13
0.36
0.66
1.01
1.37
1.72
2.06
2.40
2.79
3.24
3.80
4.42
5.06
5.66
6.20
6.68
7.15
7.68
8.31
9.14
10.09
11.04
11.88
12.56
13.14
13.76
14.65
15.96
17.91
20.32
22.90
25.38
27.58
29.57
31.68
34.32
37.81
42.54
48.15
54.10
59.83
64.97
69.58
74.14
79.34
85.71
93.76
103.00
112.62
121.73
129.77
136.75
143.30
150.75
157.77
166.64
177.95
191.79
206.97
220.57
228.25
225.36
208.53
176.87
132.76
80.05
23.07
-34.94
-92.44
-149.16
-205.23
-260.37
-313.74
-363.87
-409.83
-450.91
-486.50
-515.74
-537.23
-549.22
-549.96
-538.37
-514.21
-478.67
-433.88
-382.45
-327.02
-269.84
-212.63
-156.66
-102.95
-52.37
-5.90
35.58
71.43
101.35
125.50
144.38
158.69
169.15
176.37
180.75
182.57
182.07
179.51
175.23
169.65
163.18
156.15
148.81
141.30
133.69
126.02
118.33
110.69
103.16
95.80
88.68
81.83
75.25
68.95
62.95
57.25
51.86
46.78
42.03
37.59
33.45
29.61
26.07
22.81
19.83
17.11
14.67
12.48
10.54
8.83
7.35
6.07
4.97
4.05
3.27
2.62
2.09
1.65
1.30
1.01
0.79
0.61
0.47
0.37
0.29
0.23
0.19
0.16
0.15
0.15
0.16
0.17
0.20
0.23
0.26
0.30
0.34
0.38
0.42
0.47
0.52
0.57
0.62
0.67
0.73
0.79
0.86
0.93
1.01
1.11
1.21
1.32
1.44
1.59
1.74
1.92
2.11
2.33
2.57
2.84
3.13
3.46
3.81
4.20
4.62
5.08
5.57
6.10
6.67
7.29
7.95
8.64
9.39
10.18
11.02
11.90
12.82
13.80
14.84
15.94
17.10
18.33
19.59
20.87
22.11
23.24
24.16
24.75
24.90
24.48
23.41
21.61
19.11
15.92
12.13
7.91
3.45
-1.04
-5.34
-9.23
-12.57
-15.24
-17.20
-18.47
-19.09
-19.15
-18.73
-17.96
-16.90
-15.68
-14.35
-13.00
-11.67
-10.34
-9.04
-7.76
-6.46
-5.08
-3.63
-2.12
-0.56
1.03
2.66
4.29
5.92
7.60
9.39
11.27
13.17
15.01
16.71
18.37
19.82
21.17
22.56
24.14
25.92
27.78
29.48
30.88
32.03
32.69
32.96
33.13
33.40
33.76
34.01
33.74
32.66
30.74
27.60
23.24
17.84
11.46
3.82
-5.79
-18.63
-36.76
-58.09
-82.73
-110.85
-141.89
-174.03
-204.14
-228.31
-243.06
-246.36
-238.13
-220.69
-196.99
-169.75
-140.97
-112.04
-84.05
-58.10
-35.18
-15.71
0.08
12.91
23.88
33.89
43.23
51.64
58.55
63.59
66.94
68.91
70.21
71.50
73.08
74.85
76.39
77.26
77.14
75.98
73.73
70.51
66.51
61.97
57.12
52.20
47.35
42.55
37.68
32.50
26.84
20.71
14.28
7.85
1.64
-4.26
-10.00
-15.93
-22.46
-30.03
-38.91
-49.17
-60.42
-71.79
-81.94
-89.27
-92.40
-90.60
-84.16
-74.25
-62.53
-50.65
-39.65
-29.94
-21.39
-13.69
-6.62
-0.24
5.27
9.76
13.24
15.93
18.21
20.50
23.07
26.06
29.35
32.71
35.81
38.44
40.53
42.16
43.39
44.16
44.19
43.12
40.74
37.06
32.47
27.44
22.37
17.38
12.37
7.18
1.77
-3.71
-9.03
-14.02
-18.84
-23.94
-29.94
-37.36
-46.42
-56.74
-67.30
-76.53
-82.74
-84.58
-81.51
-73.96
-63.14
-50.58
-37.55
-24.73
-12.31
-0.21
11.52
22.53
32.30
40.37
46.68
51.55
55.60
59.45
63.47
67.66
71.65
74.92
76.95
77.49
76.59
74.65
72.16
69.56
67.01
64.40
61.45
57.85
53.43
48.25
42.45
36.24
29.77
23.07
16.16
9.02
1.61
-6.17
-14.54
-23.69
-33.69
-44.23
-54.50
-63.28
-69.21
-71.17
-68.75
-62.34
-52.99
-42.03
-30.61
-19.45
-8.80
1.30
10.79
19.39
26.71
32.42
36.48
39.20
41.15
42.91
44.83
46.97
49.11
50.98
52.38
53.28
53.73
53.71
52.95
51.04
47.53
42.24
35.38
27.56
19.56
12.03
5.26
-0.93
-7.08
-13.87
-21.90
-31.42
-42.06
-52.81
-62.03
-67.85
-68.71
-63.89
-53.84
-39.99
-24.35
-8.81
5.38
17.69
28.25
37.24
44.71
50.44
54.12
55.74
55.72
54.91
54.27
54.47
55.63
57.29
58.68
59.08
58.09
55.80
52.59
48.97
45.26
41.52
37.54
33.02
27.75
21.71
15.13
8.40
1.90
-4.12
-9.60
-14.71
-19.77
-25.10
-31.06
-37.93
-45.85
-54.63
-63.69
-71.95
-78.05
-80.65
-78.85
-72.57
-62.53
-50.14
-36.97
-24.33
-12.93
-2.89
6.03
14.12
21.46
27.92
33.30
37.59
41.01
43.99
46.94
50.03
53.13
55.84
57.78
58.75
58.81
58.25
57.29
55.95
54.00
51.09
46.92
41.51
35.19
28.50
21.96
15.87
10.16
4.47
-1.59
-8.25
-15.45
-22.89
-30.14
-36.94
-43.23
-49.24
-55.41
-62.17
-69.91
-78.63
-87.90
-96.76
-103.78
-107.46
-106.60
-100.76
-90.47
-77.01
-62.03
-47.00
-32.86
-19.91
-8.08
2.75
12.55
21.09
28.08
33.42
37.30
40.20
42.67
45.18
47.90
50.74
53.39
55.53
56.99
57.77
58.00
57.84
57.37
56.53
55.14
53.00
49.99
46.12
41.57
36.66
31.75
27.11
22.80
18.68
14.44
9.76
4.48
-1.30
-7.27
-12.99
-18.12
-22.60
-26.66
-30.76
-35.46
-41.19
-48.21
-56.44
-65.41
-74.25
-81.75
-86.53
-87.39
-83.75
-75.85
-64.75
-51.98
-39.00
-26.78
-15.58
-5.17
4.78
14.38
23.39
31.41
38.15
43.63
48.23
52.42
56.51
60.48
64.04
66.83
68.63
69.48
69.63
69.36
68.84
67.99
66.55
64.19
60.71
56.14
50.80
45.24
39.99
35.39
31.40
27.66
23.62
18.82
13.16
6.86
0.42
-5.71
-11.24
-16.16
-20.69
-25.18
-29.97
-35.45
-41.94
-49.65
-58.47
-67.80
-76.48
-83.01
-85.92
-84.38
-78.44
-69.16
-58.17
-47.12
-37.11
-28.48
-20.93
-13.99
-7.44
-1.52
3.17
6.10
7.17
6.87
6.14
5.91
6.69
8.26
9.83
10.35
9.07
5.93
1.61
-2.74
-6.07
-8.00
-9.04
-10.34
-13.12
-17.92
-24.21
-30.58
-35.31
-37.21
-36.04
-32.41
-27.33
-21.61
-15.74
-10.09
-5.19
-1.65
0.38
1.95
5.38
13.36
27.42
46.53
67.15
84.82
96.54
102.49
105.82
110.53
118.74
129.05
137.10
137.91
128.70
110.33
86.69
62.66
41.71
24.85
11.06
-1.25
-12.88
-23.21
-30.83
-34.53
-34.22
-31.09
-27.12
-24.12
-22.98
-23.36
-24.11
-23.99
-22.41
-19.73
-17.03
-15.53
-15.91
-17.98
-20.80
-23.16
-24.16
-23.64
-22.24
-21.09
-21.44
-24.13
-29.22
-36.02
-43.29
-49.72
-54.46
-57.52
-59.72
-62.39
-66.66
-72.86
-80.24
-87.09
-91.43
-91.72
-87.44
-79.14
-68.24
-56.42
-45.19
-35.63
-28.25
-23.03
-19.49
-16.89
-14.42
-11.54
-8.14
-4.51
-1.05
2.13
5.37
9.39
14.75
21.48
28.83
35.60
40.58
43.07
42.96
40.58
36.42
30.79
23.86
15.78
6.86
-2.28
-10.84
-17.96
-23.01
-25.81
-26.65
-26.28
-25.63
-25.56
-26.59
-28.80
-31.85
-35.20
-38.23
-40.36
-41.08
-39.94
-36.67
-31.22
-23.89
-15.34
-6.44
1.89
8.95
14.35
18.09
20.42
21.66
22.15
22.10
21.59
20.64
19.19
17.14
14.47
11.21
7.46
3.33
-1.18
-6.19
-11.98
-18.73
-26.37
-34.42
-42.06
-48.32
-52.38
-53.86
-52.95
-50.48
-47.90
-47.20
-50.44
-59.01
-72.82
-89.67
-105.48
-115.21
-114.52
-101.19
-76.01
-42.45
-5.52
29.62
58.99
80.28
93.00
98.05
97.27
92.88
86.96
81.02
75.68
70.64
64.89
57.12
46.27
32.03
15.09
-2.78
-19.15
-31.49
-37.99
-38.11
-32.78
-24.00
-14.25
-5.80
-0.26
1.60
-0.11
-4.54
-10.22
-15.52
-19.08
-20.31
-19.60
-18.33
-18.45
-21.77
-29.46
-41.53
-56.71
-72.54
-85.90
-93.71
-93.73
-85.21
-69.12
-47.77
-24.21
-1.29
18.86
35.08
47.18
55.66
61.47
65.71
69.46
73.44
77.90
82.62
87.15
91.12
94.62
98.24
102.84
109.18
117.60
127.83
139.09
150.34
160.47
168.47
173.52
174.99
172.54
166.02
155.42
140.80
122.30
100.37
76.06
51.20
28.21
9.41
-3.80
-11.61
-15.73
-18.69
-22.76
-28.99
-37.03
-45.73
-54.06
-61.97
-70.25
-79.81
-90.65
-101.26
-109.12
-112.00
-109.53
-103.90
-99.53
-101.50
-113.74
-137.37
-170.00
-206.00
-237.86
-258.14
-261.47
-246.04
-213.96
-170.46
-122.25
-75.63
-35.06
-2.68
21.32
38.09
49.34
56.97
62.62
67.47
71.98
75.82
78.27
78.63
76.70
72.88
68.01
63.15
59.23
56.86
56.21
56.95
58.27
59.20
58.89
57.02
53.97
50.66
48.08
46.79
46.61
46.65
45.71
42.73
37.21
29.34
19.84
9.73
-0.10
-9.30
-18.34
-28.38
-40.64
-55.58
-72.14
-87.70
-98.89
-102.92
-98.79
-87.68
-72.30
-55.70
-40.00
-25.97
-13.35
-1.62
9.31
18.95
26.50
31.37
33.36
32.80
30.29
26.58
22.37
18.27
14.68
11.71
9.28
7.31
5.89
5.34
5.96
7.72
9.97
11.61
11.38
8.44
2.54
-6.00
-16.62
-28.73
-41.73
-54.88
-67.03
-76.79
-82.84
-84.45
-81.69
-75.49
-67.15
-57.93
-48.77
-40.22
-32.60
-26.04
-20.47
-15.52
-10.57
-5.02
1.41
8.35
14.86
19.63
21.50
19.66
13.98
4.96
-6.32
-18.29
-29.18
-37.36
-41.86
-42.71
-41.06
-38.70
-37.48
-38.53
-42.00
-47.16
-52.80
-57.64
-60.50
-60.30
-56.08
-47.22
-33.87
-17.25
0.44
16.69
29.64
38.74
44.81
49.43
53.92
58.65
62.98
65.84
66.57
65.38
63.24
61.33
60.41
60.55
61.39
62.64
64.41
67.18
71.38
76.85
82.62
87.05
88.54
86.08
79.78
70.76
60.62
50.83
42.08
34.21
26.45
17.85
7.73
-4.08
-17.36
-31.49
-45.62
-58.72
-69.63
-77.35
-81.26
-81.43
-78.56
-73.67
-67.63
-60.72
-52.63
-42.83
-31.08
-17.92
-4.56
7.46
17.00
23.71
28.15
31.36
34.29
37.40
40.50
43.12
44.90
45.90
46.60
47.54
48.98
50.73
52.20
52.77
52.01
49.92
46.81
43.20
39.74
37.04
35.49
35.14
35.43
35.32
33.56
29.18
21.80
11.75
-0.15
-12.88
-25.30
-36.18
-44.17
-47.95
-46.63
-40.14
-29.46
-16.33
-2.68
10.08
21.33
31.10
39.54
46.55
51.46
53.33
51.30
44.94
34.55
21.04
5.83
-9.51
-23.47
-34.83
-42.80
-47.12
-48.06
-46.31
-42.85
-38.69
-34.60
-30.95
-27.76
-24.91
-22.28
-20.02
-18.48
-18.15
-19.37
-22.23
-26.50
-31.75
-37.55
-43.59
-49.73
-55.95
-62.28
-68.77
-75.47
-82.33
-89.09
-95.14
-99.46
-100.83
-98.15
-90.88
-79.28
-64.39
-47.69
-30.66
-14.40
0.56
14.04
26.06
36.59
45.53
52.72
58.11
61.78
63.96
64.92
64.95
64.27
63.11
61.72
60.34
59.22
58.54
58.36
58.67
59.29
60.00
60.57
60.74
60.35
59.30
57.61
55.41
52.91
50.36
47.91
45.61
43.33
40.82
37.77
33.96
29.26
23.73
17.61
11.28
5.27
0.19
-3.38
-5.02
-4.56
-2.17
1.79
6.84
12.44
18.14
23.56
28.35
32.18
34.86
36.31
36.65
36.11
35.05
33.85
32.82
32.12
31.74
31.52
31.17
30.44
29.19
27.42
25.27
22.86
20.24
17.44
14.50
11.51
8.69
6.17
4.02
2.08
0.05
-2.34
-5.23
-8.56
-12.08
-15.52
-18.69
-21.49
-24.00
-26.35
-28.72
-31.31
-34.30
-37.77
-41.60
-45.43
-48.65
-50.55
-50.49
-48.19
-43.78
-37.80
-30.95
-23.92
-17.12
-10.74
-4.74
0.87
5.99
10.42
13.93
16.45
18.12
19.26
20.22
21.25
22.38
23.47
24.26
24.54
24.18
23.16
21.59
19.63
17.48
15.41
13.62
12.16
10.91
9.67
8.26
6.70
5.24
4.22
3.95
4.48
5.62
6.96
8.08
8.71
8.85
8.74
8.82
9.55
11.22
13.86
17.12
20.37
22.88
24.06
23.55
21.32
17.62
12.96
8.06
3.76
0.76
-0.58
-0.33
1.04
2.79
4.20
4.81
4.50
3.48
2.16
0.98
0.31
0.38
1.25
2.90
5.20
8.01
11.14
14.41
17.63
20.73
23.94
27.78
32.95
39.90
48.43
57.54
65.67
71.40
74.03
73.96
72.48
71.35
72.39
77.27
87.32
103.14
124.06
147.55
169.24
183.95
187.28
177.32
155.26
124.82
90.50
55.86
22.47
-9.98
-42.95
-78.10
-116.63
-158.78
-203.51
-248.38
-289.96
-324.62
-349.53
-363.66
-367.86
-364.41
-356.13
-345.58
-334.62
-324.32
-314.96
-306.01
-296.13
-283.40
-265.88
-242.34
-212.85
-178.88
-142.97
-108.02
-76.67
-50.68
-30.48
-15.09
-2.51
9.60
22.98
38.26
54.88
71.60
87.26
101.20
113.21
123.19
130.91
136.01
138.44
138.83
138.50
138.99
141.42
145.81
150.88
154.39
153.79
147.08
133.52
114.03
90.94
67.35
46.07
28.73
15.36
4.83
-4.35
-13.07
-21.35
-28.62
-34.50
-39.45
-44.72
-51.75
-61.24
-72.55
-83.75
-92.34
-96.24
-94.66
-88.32
-79.10
-69.29
-60.76
-54.54
-50.70
-48.68
-47.53
-46.01
-42.67
-35.98
-24.83
-9.14
9.77
29.20
45.88
57.12
61.78
60.63
55.87
50.12
45.39
42.59
41.65
42.05
43.33
45.39
48.34
52.38
57.61
64.08
71.84
81.05
91.69
103.28
114.65
124.07
129.70
130.27
125.42
115.73
102.27
86.11
68.04
48.58
28.23
7.81
-11.45
-27.88
-39.47
-43.93
-39.01
-23.11
3.64
38.57
76.40
110.33
134.08
143.90
139.75
124.89
104.35
82.85
63.36
46.74
32.32
18.73
4.61
-11.40
-30.98
-56.22
-89.07
-130.10
-177.23
-225.40
-267.44
-296.33
-307.71
-301.56
-281.97
-255.30
-227.38
-201.57
-178.17
-155.65
-132.45
-108.35
-84.73
-63.59
-46.44
-33.44
-23.50
-14.96
-6.34
3.15
13.45
23.94
33.75
42.15
48.54
52.57
54.01
52.58
47.94
39.86
28.60
15.05
0.68
-12.82
-24.10
-32.54
-38.24
-41.75
-43.54
-43.76
-42.27
-38.90
-33.73
-27.18
-19.91
-12.68
-6.21
-1.11
2.12
3.26
2.51
0.57
-1.46
-2.41
-1.38
2.05
7.67
14.78
22.33
29.30
35.03
39.46
43.00
46.17
49.06
51.10
51.21
48.38
42.24
33.31
22.73
11.78
1.38
-7.88
-15.46
-20.55
-21.99
-18.75
-10.51
1.96
16.99
32.57
47.07
59.63
70.12
78.67
85.53
90.67
93.93
95.25
94.78
93.00
90.49
87.85
85.40
83.17
80.89
78.23
74.90
70.78
65.91
60.40
54.28
47.53
40.01
31.66
22.54
12.93
3.24
-6.13
-15.06
-23.74
-32.71
-42.51
-53.47
-65.30
-77.02
-87.16
-94.15
-96.75
-94.31
-86.85
-74.93
-59.61
-42.30
-24.66
-8.30
5.48
16.05
23.51
28.53
32.03
34.71
36.96
38.92
40.63
42.18
43.79
45.61
47.53
49.24
50.24
50.12
48.73
46.19
42.85
39.17
35.44
31.80
28.13
24.19
19.73
14.54
8.48
1.53
-6.18
-14.32
-22.25
-29.00
-33.48
-34.68
-32.05
-25.69
-16.37
-5.29
6.30
17.39
27.35
35.90
42.88
48.20
51.80
53.75
54.37
54.18
53.78
53.55
53.59
53.63
53.30
52.32
50.65
48.42
45.82
42.88
39.45
35.32
30.35
24.64
18.48
12.25
6.21
0.48
-5.05
-10.65
-16.69
-23.53
-31.42
-40.31
-49.72
-58.70
-65.91
-70.04
-70.18
-66.14
-58.44
-48.16
-36.48
-24.40
-12.54
-1.17
9.59
19.58
28.51
36.03
41.84
45.93
48.55
50.18
51.32
52.33
53.34
54.29
55.02
55.38
55.28
54.67
53.47
51.63
49.06
45.81
42.02
37.90
33.67
29.49
25.38
21.22
16.85
12.13
7.00
1.58
-3.94
-9.35
-14.50
-19.42
-24.25
-29.23
-34.69
-40.99
-48.39
-56.86
-65.88
-74.36
-80.83
-83.86
-82.55
-76.84
-67.57
-56.08
-43.75
-31.54
-19.89
-8.85
1.66
11.59
20.62
28.37
34.47
38.85
41.75
43.66
45.18
46.73
48.42
50.10
51.44
52.15
52.13
51.47
50.40
49.06
47.45
45.41
42.74
39.35
35.36
31.06
26.83
22.97
19.63
16.75
14.09
11.33
8.13
4.30
-0.20
-5.23
-10.50
-15.71
-20.60
-25.12
-29.38
-33.70
-38.42
-43.89
-50.29
-57.54
-65.15
-72.29
-77.86
-80.73
-80.14
-75.87
-68.39
-58.66
-47.81
-36.83
-26.28
-16.39
-7.14
1.44
9.18
15.81
21.09
24.99
27.75
29.81
31.63
33.55
35.62
37.68
39.45
40.68
41.28
41.28
40.84
40.11
39.16
37.97
36.44
34.45
31.96
29.06
25.90
22.72
19.69
16.85
14.11
11.29
8.17
4.63
0.66
-3.67
-8.18
-12.68
-16.98
-20.99
-24.66
-28.09
-31.44
-34.97
-38.98
-43.75
-49.45
-56.00
-62.99
-69.63
-74.87
-77.64
-77.12
-73.05
-65.83
-56.41
-45.97
-35.60
-25.97
-17.29
-9.41
-2.06
4.85
11.20
16.66
20.96
24.01
26.03
27.44
28.70
30.10
31.69
33.31
34.72
35.74
36.23
36.20
35.68
34.68
33.22
31.37
29.23
26.97
24.73
22.55
20.42
18.19
15.77
13.08
10.16
7.09
3.91
0.64
-2.78
-6.39
-10.20
-14.18
-18.25
-22.32
-26.36
-30.35
-34.40
-38.70
-43.50
-49.07
-55.56
-62.82
-70.31
-77.11
-82.08
-84.19
-82.80
-77.92
-70.16
-60.57
-50.31
-40.33
-31.24
-23.24
-16.33
-10.40
-5.45
-1.50
1.44
3.49
4.99
6.29
7.68
9.21
10.65
11.61
11.72
10.84
9.10
6.89
4.64
2.71
1.27
0.31
-0.28
-0.60
-0.75
-0.78
-0.80
-0.97
-1.57
-2.84
-4.88
-7.63
-10.89
-14.40
-18.01
-21.77
-25.85
-30.42
-35.52
-40.98
-46.53
-51.90
-56.97
-61.80
-66.46
-70.87
-74.63
-77.14
-77.74
-75.97
-71.72
-65.31
-57.31
-48.45
-39.43
-30.87
-23.20
-16.71
-11.53
-7.65
-4.92
-3.08
-1.79
-0.71
0.50
2.05
4.10
6.64
9.63
12.97
16.58
20.50
24.88
29.94
35.85
42.59
49.92
57.26
63.86
68.91
71.72
71.83
69.19
64.09
57.26
49.84
43.20
38.72
37.48
40.00
46.03
54.58
64.16
73.14
80.19
84.57
86.32
86.09
84.75
83.10
81.54
80.02
78.24
75.85
72.79
69.30
65.98
63.51
62.40
62.70
63.74
64.25
62.63
57.63
48.85
37.02
23.74
10.89
-0.02
-8.29
-13.89
-17.15
-18.35
-17.66
-15.29
-11.76
-8.01
-5.20
-4.22
-5.32
-8.06
-11.54
-14.74
-16.96
-17.88
-17.59
-16.51
-15.18
-14.25
-14.27
-15.55
-18.06
-21.39
-24.92
-28.08
-30.48
-31.97
-32.52
-32.07
-30.52
-27.74
-23.78
-18.96
-13.71
-8.51
-3.65
0.82
5.05
9.14
13.09
16.68
19.62
21.70
22.86
23.23
22.97
22.24
21.12
19.66
17.84
15.70
13.28
10.62
7.73
4.66
1.50
-1.54
-4.23
-6.31
-7.65
-8.26
-8.31
-8.02
-7.60
-7.17
-6.75
-6.25
-5.58
-4.64
-3.49
-2.25
-1.18
-0.48
-0.29
-0.59
-1.29
-2.26
-3.43
-4.78
-6.27
-7.82
-9.26
-10.41
-11.22
-11.77
-12.25
-12.79
-13.36
-13.81
-13.98
-13.84
-13.49
-13.13
-12.92
-12.98
-13.31
-13.82
-14.37
-14.70
-14.53
-13.53
-11.50
-8.49
-4.78
-0.82
2.96
6.26
8.97
11.07
12.56
13.43
13.74
13.67
13.56
13.75
14.33
15.07
15.42
14.73
12.61
9.13
4.81
0.42
-3.35
-6.19
-8.13
-9.49
-10.61
-11.76
-13.08
-14.58
-16.30
-18.29
-20.66
-23.56
-27.13
-31.47
-36.50
-41.94
-47.30
-52.04
-55.70
-58.01
-58.95
-58.74
-57.81
-56.85
-56.70
-58.26
-62.16
-68.54
-76.91
-86.32
-95.65
-103.96
-110.64
-115.38
-118.02
-118.50
-116.90
-113.60
-109.36
-105.16
-101.85
-99.90
-99.23
-99.37
-99.79
-100.28
-101.01
-102.54
-105.44
-110.00
-115.86
-122.08
-127.35
-130.44
-130.62
-127.72
-122.03
-114.04
-104.21
-92.89
-80.47
-67.29
-53.71
-39.88
-25.83
-11.53
2.79
16.51
28.77
39.03
47.46
54.85
62.14
69.51
76.02
79.94
79.74
75.12
67.36
58.81
51.73
47.31
45.24
44.21
42.77
40.11
36.21
31.53
26.45
20.90
14.46
6.57
-3.14
-14.67
-27.54
-40.86
-53.41
-63.87
-71.09
-74.32
-73.21
-67.68
-57.74
-43.55
-25.64
-5.19
15.98
35.76
52.43
65.19
74.38
81.09
86.54
91.55
96.35
100.81
104.74
108.12
110.99
113.32
114.85
115.26
114.33
112.15
109.13
105.80
102.68
99.92
97.33
94.42
90.65
85.59
79.12
71.43
62.97
54.25
45.76
37.77
30.25
22.89
15.13
6.34
-3.83
-15.24
-27.18
-38.42
-47.53
-53.28
-54.84
-51.87
-44.49
-33.17
-18.74
-2.31
14.80
31.25
45.92
58.16
67.81
75.08
80.40
84.23
87.00
89.12
91.02
93.05
95.30
97.59
99.42
100.27
99.77
97.93
95.04
91.51
87.67
83.52
78.81
73.17
66.41
58.63
50.23
41.77
33.68
26.12
18.92
11.61
3.68
-5.32
-15.63
-27.19
-39.64
-52.24
-63.89
-73.22
-78.84
-79.72
-75.52
-66.73
-54.56
-40.52
-26.01
-12.02
0.98
12.79
23.27
32.23
39.40
44.58
47.80
49.34
49.69
49.36
48.77
48.17
47.61
47.07
46.48
45.84
45.14
44.34
43.23
41.48
38.71
34.65
29.31
23.01
16.30
9.77
3.78
-1.55
-6.46
-11.35
-16.71
-23.02
-30.55
-39.28
-48.69
-57.79
-65.19
-69.50
-69.68
-65.45
-57.30
-46.31
-33.78
-20.80
-8.15
3.71
14.47
23.80
31.39
37.10
41.06
43.76
45.88
48.01
50.39
52.86
54.85
55.78
55.26
53.34
50.42
47.05
43.62
40.22
36.63
32.51
27.63
22.04
15.99
9.92
4.15
-1.13
-5.99
-10.67
-15.53
-20.93
-27.14
-34.25
-42.07
-50.07
-57.40
-63.01
-65.89
-65.41
-61.45
-54.53
-45.63
-35.88
-26.21
-17.11
-8.62
-0.55
7.21
14.52
20.93
25.98
29.46
31.54
32.79
33.88
35.23
36.85
38.41
39.44
39.59
38.82
37.27
35.14
32.51
29.28
25.26
20.34
14.62
8.46
2.35
-3.26
-8.13
-12.33
-16.19
-20.16
-24.67
-30.01
-36.27
-43.31
-50.81
-58.17
-64.63
-69.24
-71.17
-69.90
-65.43
-58.33
-49.59
-40.30
-31.34
-23.22
-16.07
-9.75
-4.09
0.96
5.31
8.84
11.52
13.50
15.07
16.60
18.32
20.27
22.28
24.07
25.40
26.17
26.40
26.21
25.69
24.84
23.55
21.76
19.49
16.92
14.24
11.61
9.01
6.27
3.16
-0.48
-4.63
-9.17
-13.99
-19.12
-24.70
-30.85
-37.51
-44.25
-50.31
-54.72
-56.57
-55.18
-50.37
-42.40
-31.98
-20.17
-8.08
3.29
13.32
21.86
29.14
35.55
41.48
47.19
52.77
58.33
64.01
69.95
76.30
82.99
89.86
96.59
102.97
108.90
114.47
119.97
125.73
132.07
139.07
146.36
152.97
157.48
158.30
154.31
145.21
131.61
114.70
95.69
75.40
54.12
31.90
8.75
-15.06
-39.12
-62.99
-86.28
-108.54
-129.05
-146.74
-160.26
-168.46
-170.98
-168.63
-163.35
-157.53
-153.02
-150.16
-147.45
-142.12
-131.43
-114.08
-90.96
-64.89
-39.47
-17.60
-0.66
11.61
20.26
26.34
30.43
32.70
33.35
32.82
31.64
30.13
28.10
24.93
19.97
12.96
4.22
-5.56
-15.61
-25.51
-35.24
-44.95
-54.74
-64.33
-72.96
-79.52
-82.83
-82.02
-76.90
-68.13
-57.10
-45.63
-35.44
-27.60
-22.35
-19.29
-17.70
-16.99
-16.80
-17.06
-17.67
-18.41
-18.97
-19.16
-19.09
-19.35
-20.68
-23.78
-28.86
-35.47
-42.70
-49.42
-54.79
-58.52
-60.95
-62.84
-65.02
-68.05
-71.99
-76.45
-80.87
-84.72
-87.70
-89.89
-91.61
-93.37
-95.60
-98.52
-101.96
-105.30
-107.59
-107.77
-105.03
-99.05
-90.11
-78.95
-66.48
-53.50
-40.52
-27.74
-15.11
-2.57
9.92
22.22
34.03
44.82
53.99
60.78
64.50
64.63
61.06
54.20
44.97
34.69
24.74
16.21
9.61
4.81
1.19
-2.04
-5.55
-9.62
-14.22
-19.11
-24.08
-29.01
-33.94
-38.94
-44.08
-49.32
-54.55
-59.72
-64.90
-70.26
-75.91
-81.76
-87.28
-91.60
-93.60
-92.28
-87.03
-77.87
-65.35
-50.31
-33.68
-16.18
1.64
19.35
36.54
52.86
68.00
81.76
94.03
104.74
113.83
121.21
126.83
130.74
132.97
133.53
132.31
129.20
124.19
117.62
110.16
102.62
95.56
89.09
82.82
76.21
68.98
61.35
53.97
47.50
42.22
37.75
33.37
28.38
22.57
16.31
10.29
5.07
0.70
-3.37
-8.02
-14.12
-22.20
-32.37
-44.30
-57.26
-70.15
-81.59
-90.08
-94.40
-93.92
-88.90
-80.35
-69.72
-58.36
-47.18
-36.59
-26.66
-17.43
-9.04
-1.74
4.25
8.92
12.51
15.40
17.96
20.47
23.00
25.51
27.89
30.03
31.89
33.42
34.52
35.06
34.88
33.86
32.04
29.59
26.80
23.89
20.98
18.03
14.88
11.38
7.49
3.30
-0.99
-5.20
-9.24
-13.21
-17.36
-22.09
-27.76
-34.69
-42.88
-51.91
-60.89
-68.49
-73.26
-74.01
-70.22
-62.24
-51.24
-38.75
-26.21
-14.58
-4.16
5.12
13.35
20.47
26.23
30.41
33.05
34.54
35.46
36.41
37.76
39.58
41.74
43.99
46.15
48.11
49.78
50.97
51.44
50.92
49.23
46.39
42.70
38.61
34.59
30.90
27.42
23.79
19.55
14.40
8.51
2.31
-3.63
-8.89
-13.47
-17.71
-22.16
-27.35
-33.58
-40.90
-49.11
-57.86
-66.63
-74.62
-80.88
-84.26
-83.86
-79.19
-70.41
-58.27
-43.77
-27.78
-10.75
7.07
25.15
42.30
56.64
66.26
70.12
68.70
63.98
58.65
54.95
53.88
54.93
56.80
58.20
58.55
58.07
57.32
56.64
55.87
54.42
51.76
47.73
42.73
37.54
33.04
29.66
27.29
25.24
22.65
18.91
13.89
7.98
1.90
-3.76
-8.70
-13.05
-17.27
-21.93
-27.56
-34.49
-42.81
-52.21
-61.97
-70.90
-77.55
-80.55
-79.01
-72.91
-63.06
-50.88
-37.94
-25.43
-14.00
-3.77
5.37
13.52
20.62
26.51
31.17
34.74
37.63
40.28
42.98
45.74
48.29
50.24
51.31
51.46
50.90
49.93
48.79
47.48
45.79
43.40
40.13
35.94
31.06
25.86
20.70
15.87
11.49
7.55
3.92
0.48
-2.86
-6.14
-9.27
-12.16
-14.78
-17.25
-19.85
-23.03
-27.21
-32.76
-39.73
-47.77
-56.06
-63.35
-68.18
-69.23
-65.79
-58.02
-46.95
-34.16
-21.29
-9.53
0.58
9.04
16.09
21.93
26.53
29.77
31.61
32.28
32.27
32.21
32.61
33.69
35.32
37.12
38.64
39.56
39.73
39.21
38.11
36.51
34.40
31.77
28.69
25.33
21.96
18.83
16.04
13.43
10.68
7.42
3.47
-1.10
-5.98
-10.72
-15.05
-18.91
-22.59
-26.61
-31.45
-37.45
-44.54
-52.21
-59.56
-65.39
-68.43
-67.68
-62.72
-53.88
-42.22
-29.23
-16.40
-4.83
4.99
13.09
19.73
25.13
29.35
32.32
34.11
34.97
35.39
35.91
36.88
38.42
40.25
42.02
43.30
43.81
43.45
42.29
40.45
38.06
35.24
32.06
28.63
25.02
21.31
17.55
13.70
9.66
5.32
0.67
-4.23
-9.09
-13.67
-17.83
-21.71
-25.72
-30.42
-36.34
-43.69
-52.27
-61.31
-69.60
-75.72
-78.36
-76.72
-70.74
-61.16
-49.31
-36.65
-24.39
-13.26
-3.46
5.07
12.43
18.59
23.41
26.86
29.06
30.39
31.30
32.18
33.22
34.38
35.46
36.24
36.57
36.45
35.99
35.27
34.29
32.92
30.96
28.31
25.04
21.39
17.63
13.93
10.26
6.42
2.18
-2.55
-7.65
-12.83
-17.78
-22.27
-26.37
-30.41
-34.88
-40.33
-47.05
-54.84
-62.93
-69.99
-74.47
-75.07
-71.15
-63.02
-51.82
-39.15
-26.60
-15.28
-5.70
2.20
8.75
14.32
19.14
23.27
26.71
29.49
31.71
33.53
35.11
36.54
37.81
38.87
39.59
39.88
39.70
39.00
37.79
36.10
33.92
31.22
27.95
24.10
19.76
15.13
10.51
6.20
2.41
-0.81
-3.63
-6.31
-9.19
-12.55
-16.65
-21.68
-27.86
-35.26
-43.75
-52.77
-61.26
-67.81
-71.06
-70.10
-64.80
-55.85
-44.51
-32.18
-19.99
-8.65
1.59
10.73
18.76
25.60
31.09
35.19
38.02
39.90
41.33
42.73
44.32
46.07
47.79
49.17
50.02
50.22
49.78
48.73
47.08
44.82
41.97
38.65
34.99
31.18
27.35
23.47
19.45
15.14
10.42
5.34
0.13
-4.89
-9.49
-13.59
-17.45
-21.53
-26.40
-32.52
-39.95
-48.22
-56.32
-62.85
-66.42
-66.05
-61.47
-53.20
-42.44
-30.56
-18.86
-8.15
1.21
9.19
15.86
21.23
25.26
27.92
29.40
30.11
30.60
31.34
32.57
34.15
35.69
36.72
36.90
36.15
34.56
32.38
29.80
26.99
23.99
20.76
17.20
13.23
8.80
3.96
-1.16
-6.36
-11.41
-16.15
-20.46
-24.38
-28.06
-31.73
-35.76
-40.49
-46.16
-52.64
-59.31
-65.08
-68.66
-68.89
-65.18
-57.72
-47.34
-35.25
-22.68
-10.55
0.58
10.46
18.97
26.00
31.48
35.42
38.04
39.72
40.95
42.17
43.59
45.15
46.57
47.52
47.78
47.31
46.24
44.80
43.11
41.22
39.04
36.47
33.47
30.10
26.53
22.91
19.32
15.72
11.92
7.76
3.15
-1.84
-6.97
-12.00
-16.75
-21.21
-25.57
-30.21
-35.54
-41.95
-49.58
-58.17
-66.95
-74.66
-79.81
-81.11
-77.84
-70.16
-59.09
-46.12
-32.78
-20.20
-8.88
1.18
10.25
18.51
25.94
32.29
37.32
40.94
43.36
44.97
46.26
47.54
48.87
50.06
50.81
50.98
50.61
49.99
49.45
49.15
48.97
48.51
47.24
44.79
41.12
36.57
31.68
27.05
23.03
19.65
16.63
13.53
9.95
5.71
0.87
-4.27
-9.34
-14.11
-18.53
-22.79
-27.17
-31.98
-37.45
-43.75
-50.88
-58.65
-66.54
-73.67
-78.88
-81.00
-79.27
-73.62
-64.68
-53.67
-41.93
-30.59
-20.31
-11.31
-3.48
3.35
9.29
14.35
18.50
21.76
24.28
26.31
28.23
30.32
32.69
35.23
37.62
39.45
40.52
40.81
40.58
40.10
39.56
38.88
37.88
36.38
34.37
32.01
29.57
27.26
25.10
22.96
20.69
18.21
15.62
13.04
10.56
8.11
5.50
2.54
-0.85
-4.60
-8.52
-12.41
-16.14
-19.79
-23.54
-27.66
-32.45
-38.02
-44.20
-50.38
-55.59
-58.73
-58.85
-55.59
-49.26
-40.76
-31.31
-22.00
-13.55
-6.25
-0.07
5.10
9.33
12.58
14.83
16.19
16.96
17.56
18.39
19.69
21.48
23.52
25.51
27.13
28.20
28.70
28.73
28.45
27.98
27.36
26.56
25.47
23.97
21.97
19.52
16.76
13.94
11.28
8.88
6.70
4.59
2.37
-0.14
-2.98
-6.11
-9.37
-12.60
-15.68
-18.56
-21.33
-24.16
-27.26
-30.82
-35.02
-39.87
-45.22
-50.57
-55.10
-57.80
-57.69
-54.23
-47.55
-38.49
-28.33
-18.36
-9.55
-2.28
3.53
8.18
11.91
14.82
16.83
17.93
18.30
18.35
18.56
19.30
20.70
22.52
24.38
25.83
26.60
26.65
26.13
25.27
24.25
23.07
21.63
19.77
17.41
14.61
11.65
8.88
6.59
4.87
3.57
2.31
0.72
-1.44
-4.19
-7.32
-10.53
-13.54
-16.22
-18.65
-21.06
-23.78
-27.09
-31.23
-36.24
-41.90
-47.71
-52.85
-56.35
-57.31
-55.17
-49.90
-42.15
-32.97
-23.50
-14.69
-7.03
-0.59
4.72
9.02
12.31
14.55
15.78
16.17
16.07
15.89
15.93
16.31
16.96
17.67
18.21
18.41
18.22
17.64
16.75
15.61
14.22
12.55
10.49
8.01
5.17
2.17
-0.68
-3.08
-4.86
-6.04
-6.85
-7.69
-8.97
-10.93
-13.67
-16.98
-20.49
-23.73
-26.25
-27.75
-28.13
-27.49
-26.12
-24.34
-22.41
-20.51
-18.70
-17.01
-15.44
-14.06
-12.89
-11.94
-11.09
-10.26
-9.34
-8.31
-7.23
-6.19
-5.29
-4.58
-4.04
-3.61
-3.20
-2.73
-2.20
-1.63
-1.09
-0.63
-0.28
-0.04
0.13
0.28
0.45
0.66
0.88
1.10
1.27
1.39
1.46
1.50
1.52
1.55
1.59
1.64
1.69
1.74
1.76
1.77
1.76
1.74
1.72
1.70
1.69
1.68
1.68
1.67
1.66
1.66
1.65
1.64
1.63
1.63
1.62
1.61
1.61
1.60
1.59
1.59
1.58
1.57
1.57
1.56
1.55
1.54
1.54
1.53
1.52
1.52
1.51
1.50
1.50
1.49
1.48
1.48
1.47
1.47
1.46
1.45
1.45
1.44
1.44
1.43
1.42
1.42
1.41
1.40
1.40
1.39
1.39
1.38
1.37
1.37
1.36
1.36
1.35
1.34
1.34
1.33
1.33
1.32
1.31
1.31
1.30
1.30
1.29
1.29
1.28
1.28
1.27
1.26
1.26
1.25
1.25
1.24
1.24
1.23
1.23
1.22
1.22
1.21
1.21
1.20
1.19
1.19
1.18
1.18
1.17
1.17
1.16
1.16
1.15
1.15
1.14
1.14
1.14
1.13
1.12
1.12
1.12
1.11
1.11
1.10
1.10
1.09
1.09
1.08
1.08
1.07
1.07
1.06
1.06
1.06
1.05
1.05
1.04
1.04
1.03
1.03
1.02
1.02
1.01
1.01
1.00
1.00
0.99
0.99
0.99
0.98
0.98
0.98
0.97
0.97
0.96
0.96
0.96
0.95
0.95
0.94
0.93
0.92
0.93
0.94
0.96
0.99
1.02
1.03
1.02
0.99
0.93
0.85
0.79
0.74
0.70
0.68
0.65
0.60
0.53
0.43
0.34
0.26
0.23
0.24
0.25
0.23
0.16
0.01
-0.18
-0.37
-0.50
-0.53
-0.48
-0.40
-0.39
-0.53
-0.87
-1.35
-1.85
-2.23
-2.41
-2.39
-2.30
-2.33
-2.66
-3.38
-4.39
-5.49
-6.40
-6.96
-7.16
-7.19
-7.36
-7.99
-9.20
-10.90
-12.82
-14.57
-15.81
-16.43
-16.51
-16.44
-16.79
-18.25
-21.43
-26.57
-33.38
-40.86
-47.50
-51.63
-51.97
-48.06
-40.39
-30.17
-18.97
-8.09
1.67
10.05
17.16
23.17
28.14
32.03
34.84
36.71
38.05
39.30
40.83
42.72
44.72
46.40
47.38
47.54
47.06
46.30
45.60
45.08
44.57
43.69
42.04
39.33
35.62
31.25
26.74
22.60
19.10
16.13
13.26
9.91
5.65
0.39
-5.48
-11.30
-16.42
-20.51
-23.74
-26.77
-30.43
-35.45
-42.14
-50.25
-58.96
-67.04
-73.11
-75.93
-74.74
-69.45
-60.63
-49.40
-37.10
-24.91
-13.64
-3.68
4.95
12.39
18.82
24.39
29.18
33.23
36.64
39.54
42.06
44.34
46.47
48.38
49.95
50.98
51.32
50.92
49.85
48.27
46.32
44.05
41.48
38.56
35.32
31.86
28.28
24.75
21.32
17.98
14.69
11.31
7.75
3.91
-0.22
-4.56
-8.91
-13.02
-16.67
-19.82
-22.63
-25.48
-28.83
-33.13
-38.71
-45.66
-53.74
-62.32
-70.35
-76.51
-79.51
-78.46
-73.15
-64.15
-52.65
-40.13
-27.91
-16.88
-7.38
0.64
7.47
13.41
18.65
23.27
27.31
30.83
33.96
36.88
39.74
42.57
45.25
47.56
49.31
50.38
50.82
50.75
50.35
49.71
48.86
47.71
46.13
44.07
41.55
38.67
35.60
32.47
29.42
26.48
23.66
20.90
18.04
14.93
11.43
7.48
3.18
-1.33
-5.84
-10.16
-14.18
-17.95
-21.68
-25.76
-30.67
-36.79
-44.22
-52.53
-60.70
-67.34
-70.98
-70.65
-66.05
-57.78
-47.02
-35.20
-23.62
-13.18
-4.30
2.95
8.72
13.25
16.76
19.50
21.72
23.69
25.68
27.85
30.20
32.59
34.77
36.47
37.54
37.95
37.81
37.29
36.54
35.61
34.44
32.92
30.94
28.48
25.58
22.43
19.24
16.23
13.59
11.33
9.33
7.31
4.96
2.02
-1.53
-5.53
-9.67
-13.64
-17.33
-20.86
-24.53
-28.70
-33.60
-39.32
-45.82
-52.91
-60.21
-67.01
-72.32
-74.97
-74.00
-69.04
-60.55
-49.67
-37.93
-26.65
-16.62
-8.05
-0.77
5.48
10.76
14.97
17.98
19.87
20.98
21.83
22.95
24.61
26.77
29.07
31.12
32.60
33.43
33.69
33.54
33.00
31.98
30.28
27.73
24.42
20.62
16.76
13.21
10.15
7.46
4.83
1.93
-1.51
-5.49
-9.82
-14.22
-18.40
-22.30
-25.98
-29.67
-33.65
-38.22
-43.63
-50.07
-57.53
-65.63
-73.55
-80.12
-84.00
-84.21
-80.40
-73.08
-63.43
-52.90
-42.74
-33.81
-26.48
-20.76
-16.49
-13.39
-11.10
-9.12
-6.88
-3.93
-0.08
4.42
9.01
12.95
15.65
16.88
16.87
16.15
15.40
15.12
15.61
16.91
18.99
21.80
25.36
29.67
34.70
40.26
46.10
51.87
57.22
61.78
65.17
67.11
67.48
66.39
64.16
61.16
57.55
53.25
47.90
41.14
32.93
23.74
14.56
6.66
1.25
-0.93
0.22
4.05
9.38
14.83
19.27
22.06
23.26
23.32
22.85
22.29
21.81
21.42
21.08
20.82
20.71
20.67
20.51
19.90
18.65
16.78
14.62
12.60
11.05
10.06
9.41
8.68
7.44
5.47
2.78
-0.33
-3.39
-6.01
-7.95
-9.32
-10.44
-11.76
-13.64
-16.29
-19.73
-23.91
-28.67
-33.78
-38.76
-42.76
-44.69
-43.45
-38.34
-29.40
-17.43
-3.84
9.85
22.26
32.42
39.74
43.87
44.54
41.61
35.11
25.49
13.65
0.92
-11.23
-21.64
-29.73
-35.73
-40.54
-45.32
-51.06
-58.24
-66.72
-75.95
-85.20
-93.80
-101.20
-107.03
-110.96
-112.76
-112.33
-109.73
-105.29
-99.52
-93.03
-86.49
-80.51
-75.60
-72.13
-70.15
-69.38
-69.17
-68.50
-66.28
-61.58
-53.91
-43.40
-30.71
-16.88
-3.02
10.01
21.62
31.61
40.00
46.89
52.41
56.64
59.71
61.82
63.24
64.25
65.05
65.65
65.89
65.59
64.62
62.96
60.71
57.90
54.49
50.38
45.50
39.93
33.92
27.78
21.74
15.77
9.68
3.07
-4.30
-12.50
-21.24
-29.82
-37.29
-42.62
-44.95
-43.88
-39.61
-32.88
-24.73
-16.10
-7.61
0.48
8.18
15.46
22.12
27.78
32.10
34.97
36.66
37.71
38.75
40.16
41.91
43.63
44.77
44.93
44.05
42.41
40.48
38.54
36.53
33.96
30.16
24.64
17.46
9.30
1.25
-5.66
-10.98
-15.03
-18.78
-23.37
-29.67
-37.96
-47.92
-58.91
-69.92
-79.58
-86.04
-87.37
-82.25
-70.85
-55.13
-38.34
-23.70
-13.01
-6.01
-0.83
4.82
12.27
21.33
30.72
38.95
45.23
49.77
53.36
56.86
60.67
64.68
68.48
71.69
74.01
75.37
75.81
75.35
73.89
71.36
67.72
63.20
58.31
53.85
50.62
49.23
49.88
52.29
55.78
59.43
62.19
63.11
61.46
56.86
49.42
39.63
28.34
16.71
6.04
-2.32
-7.19
-7.81
-4.04
3.58
13.98
25.89
38.21
50.21
61.46
71.65
80.36
87.02
91.06
92.18
90.47
86.46
80.91
74.49
67.66
60.49
52.81
44.37
35.01
24.83
14.05
3.00
-8.11
-19.21
-30.31
-41.31
-51.80
-61.17
-68.75
-74.23
-77.92
-80.67
-83.56
-87.44
-92.60
-98.75
-105.19
-111.11
-115.74
-118.39
-118.40
-115.26
-108.74
-99.06
-86.98
-73.59
-59.97
-46.93
-34.92
-24.10
-14.57
-6.40
0.32
5.64
9.84
13.44
17.04
21.05
25.48
29.94
33.75
36.27
37.15
36.43
34.55
31.94
28.91
25.45
21.28
16.06
9.64
2.18
-5.87
-13.88
-21.28
-27.74
-33.20
-37.89
-42.17
-46.43
-50.84
-55.29
-59.28
-62.00
-62.58
-60.29
-54.92
-46.83
-36.92
-26.27
-15.85
-6.19
2.60
10.61
17.95
24.46
29.83
33.73
36.05
37.06
37.26
37.19
37.16
37.22
37.16
36.73
35.81
34.45
32.79
30.94
28.94
26.73
24.31
21.68
18.99
16.33
13.72
11.06
8.19
4.95
1.32
-2.59
-6.58
-10.46
-14.09
-17.46
-20.75
-24.24
-28.38
-33.58
-40.08
-47.71
-55.76
-62.97
-67.90
-69.32
-66.68
-60.33
-51.29
-40.92
-30.40
-20.39
-11.05
-2.28
5.99
13.59
20.17
25.34
29.00
31.33
32.81
33.89
34.86
35.73
36.29
36.34
35.83
34.89
33.81
32.83
32.01
31.20
30.12
28.51
26.26
23.48
20.45
17.51
14.89
12.59
10.35
7.80
4.64
0.78
-3.50
-7.84
-11.88
-15.54
-18.99
-22.55
-26.47
-30.90
-35.85
-41.22
-46.84
-52.27
-56.74
-59.22
-58.74
-54.83
-47.74
-38.47
-28.30
-18.41
-9.39
-1.38
5.75
12.08
17.45
21.59
24.35
25.92
26.77
27.49
28.52
29.97
31.66
33.19
34.23
34.64
34.50
34.01
33.37
32.61
31.66
30.32
28.45
26.02
23.13
20.00
16.87
13.96
11.33
8.97
6.72
4.40
1.86
-0.94
-3.94
-6.98
-9.85
-12.44
-14.81
-17.18
-19.86
-23.23
-27.54
-32.85
-38.90
-45.06
-50.38
-53.81
-54.44
-51.84
-46.21
-38.26
-29.02
-19.53
-10.57
-2.58
4.22
9.80
14.17
17.38
19.59
21.13
22.39
23.71
25.27
27.03
28.73
30.10
30.79
30.75
30.02
28.79
27.29
25.68
23.98
22.12
20.00
17.53
14.78
11.89
9.06
6.47
4.24
2.37
0.77
-0.80
-2.59
-4.85
-7.64
-10.87
-14.24
-17.38
-20.04
-22.16
-23.96
-25.85
-28.29
-31.64
-36.02
-41.25
-46.78
-51.84
-55.50
-56.93
-55.63
-51.58
-45.26
-37.50
-29.23
-21.23
-13.94
-7.51
-1.91
2.91
6.93
10.08
12.34
13.84
14.89
15.89
17.17
18.88
20.90
22.90
24.51
25.49
25.81
25.66
25.29
24.85
24.25
23.23
21.51
19.00
15.96
12.87
10.29
8.58
7.72
7.36
6.95
5.94
4.06
1.27
-2.21
-6.08
-9.99
-13.69
-17.01
-19.97
-22.76
-25.68
-29.13
-33.39
-38.53
-44.31
-50.11
-55.07
-58.31
-59.15
-57.38
-53.34
-47.82
-41.79
-36.14
-31.38
-27.65
-24.87
-22.88
-21.69
-21.44
-22.27
-24.11
-26.72
-29.61
-32.33
-34.64
-36.58
-38.36
-40.25
-42.34
-44.49
-46.45
-48.03
-49.13
-49.83
-50.21
-50.26
-49.76
-48.36
-45.63
-41.21
-34.94
-26.83
-17.17
-6.44
4.64
15.31
24.87
32.91
39.37
44.48
48.57
51.82
54.17
55.28
54.74
52.28
48.00
42.39
36.34
30.92
27.11
25.59
26.46
29.33
33.34
37.52
41.05
43.44
44.58
44.64
43.94
42.75
41.28
39.61
37.82
35.89
33.82
31.59
29.21
26.69
24.11
21.55
19.08
16.71
14.34
11.80
8.89
5.42
1.30
-3.37
-8.37
-13.37
-18.13
-22.55
-26.67
-30.60
-34.43
-38.04
-41.12
-43.22
-43.89
-42.83
-39.99
-35.64
-30.30
-24.66
-19.44
-15.13
-11.90
-9.43
-7.07
-4.03
0.35
6.38
13.82
21.97
29.87
36.52
41.14
43.38
43.44
41.89
39.45
36.76
34.12
31.56
29.00
26.42
23.98
21.95
20.48
19.46
18.59
17.53
16.15
14.54
13.00
11.76
10.79
9.80
8.45
6.45
3.83
0.86
-2.04
-4.48
-6.30
-7.56
-8.51
-9.47
-10.81
-12.78
-15.49
-18.94
-22.86
-26.80
-30.12
-32.20
-32.58
-31.12
-28.07
-23.88
-19.05
-13.88
-8.42
-2.59
3.72
10.43
17.29
23.88
29.84
34.90
39.00
42.09
44.13
44.95
44.28
41.85
37.56
31.75
25.25
19.44
16.02
16.53
21.75
31.05
42.25
51.94
56.41
52.78
39.99
19.05
-7.26
-35.35
-61.88
-84.44
-101.82
-113.89
-121.27
-124.89
-125.76
-124.70
-122.23
-118.50
-113.44
-106.85
-98.72
-89.20
-78.60
-67.39
-56.00
-44.88
-34.42
-24.97
-16.76
-9.85
-4.08
0.88
5.41
9.79
14.12
18.24
21.89
24.83
26.94
28.29
29.03
29.31
29.23
28.78
27.92
26.59
24.78
22.51
19.82
16.78
13.53
10.28
7.25
4.55
2.17
-0.15
-2.84
-6.35
-11.09
-17.17
-24.37
-32.03
-39.18
-44.70
-47.63
-47.43
-44.09
-38.14
-30.28
-21.29
-11.80
-2.27
6.82
15.06
22.00
27.33
30.93
33.00
33.97
34.40
34.84
35.62
36.86
38.38
39.80
40.72
40.81
39.95
38.29
36.10
33.61
30.93
27.92
24.37
20.06
14.97
9.33
3.59
-1.77
-6.40
-10.24
-13.66
-17.32
-22.08
-28.54
-36.85
-46.28
-55.40
-62.40
-65.58
-63.77
-56.60
-44.61
-29.17
-12.36
3.41
15.96
23.96
27.33
27.17
25.34
23.56
22.89
23.45
24.78
26.32
27.81
29.36
31.14
33.15
35.08
36.51
37.13
36.86
35.81
34.10
31.82
28.84
25.01
20.27
14.77
8.83
2.80
-3.07
-8.82
-14.66
-20.97
-27.98
-35.62
-43.39
-50.39
-55.40
-57.31
-55.43
-49.75
-41.00
-30.44
-19.39
-8.85
0.71
9.27
16.95
23.74
29.47
33.90
36.99
39.09
40.84
42.88
45.55
48.72
51.85
54.30
55.72
56.14
55.91
55.37
54.64
53.46
51.33
47.83
42.92
37.01
30.82
25.07
20.19
16.16
12.52
8.65
3.90
-2.20
-9.84
-19.02
-29.37
-40.03
-49.52
-56.05
-58.02
-54.86
-47.37
-37.52
-27.65
-19.39
-13.05
-7.72
-2.02
4.93
12.97
21.05
27.96
33.02
36.44
39.09
41.87
45.22
48.93
52.35
54.90
56.23
56.38
55.68
54.40
52.62
50.26
47.16
43.31
38.91
34.27
29.70
25.35
21.14
16.85
12.31
7.47
2.38
-2.80
-7.96
-13.10
-18.32
-23.85
-29.96
-36.90
-44.73
-53.23
-61.72
-69.12
-74.16
-75.68
-73.09
-66.55
-56.89
-45.39
-33.27
-21.41
-10.23
0.20
9.86
18.65
26.35
32.80
38.01
42.23
45.86
49.28
52.63
55.82
58.56
60.59
61.81
62.34
62.42
62.29
62.03
61.57
60.71
59.23
57.01
54.15
50.86
47.54
44.56
42.15
40.28
38.63
36.70
33.95
30.08
25.09
19.24
12.94
6.50
-0.01
-6.82
-14.30
-22.78
-32.31
-42.49
-52.41
-60.84
-66.50
-68.44
-66.34
-60.64
-52.34
-42.71
-32.85
-23.43
-14.68
-6.53
1.13
8.29
14.78
20.34
24.86
28.38
31.06
33.11
34.64
35.65
36.16
36.23
36.03
35.77
35.56
35.37
34.96
34.04
32.39
29.96
26.89
23.44
19.88
16.37
12.93
9.47
5.84
1.92
-2.28
-6.64
-10.97
-15.11
-19.01
-22.78
-26.69
-31.09
-36.31
-42.50
-49.51
-56.84
-63.62
-68.76
-71.27
-70.48
-66.32
-59.29
-50.34
-40.48
-30.62
-21.31
-12.76
-4.99
2.11
8.61
14.46
19.56
23.80
27.09
29.52
31.33
32.78
34.07
35.26
36.24
36.89
37.13
37.05
36.82
36.56
36.20
35.49
34.13
31.94
28.98
25.53
21.97
18.57
15.48
12.65
9.94
7.21
4.35
1.25
-2.20
-6.04
-10.25
-14.64
-18.91
-22.76
-26.05
-28.89
-31.61
-34.66
-38.49
-43.36
-49.31
-56.07
-63.04
-69.32
-73.82
-75.50
-73.67
-68.34
-60.19
-50.40
-40.26
-30.66
-22.02
-14.28
-7.15
-0.47
5.71
11.16
15.67
19.13
21.68
23.61
25.24
26.86
28.62
30.52
32.38
33.98
35.06
35.51
35.37
34.77
33.86
32.68
31.16
29.17
26.67
23.76
20.71
17.82
15.26
13.03
10.95
8.80
6.42
3.78
0.93
-2.06
-5.19
-8.49
-12.03
-15.80
-19.70
-23.56
-27.29
-30.91
-34.60
-38.68
-43.48
-49.14
-55.49
-61.96
-67.68
-71.60
-72.84
-70.92
-65.94
-58.48
-49.46
-39.86
-30.43
-21.60
-13.48
-6.02
0.84
7.06
12.51
17.03
20.56
23.23
25.28
26.97
28.49
29.90
31.13
32.07
32.67
32.91
32.84
32.56
32.12
31.50
30.60
29.28
27.40
24.93
21.99
18.84
15.78
13.00
10.58
8.48
6.63
5.03
3.69
2.56
1.43
-0.04
-2.19
-5.18
-8.91
-13.00
-17.03
-20.69
-23.96
-27.08
-30.50
-34.73
-40.08
-46.57
-53.75
-60.69
-66.17
-68.99
-68.34
-64.03
-56.62
-47.18
-36.97
-27.08
-18.15
-10.38
-3.57
2.59
8.33
13.71
18.60
22.82
26.26
28.94
31.06
32.85
34.50
36.05
37.46
38.59
39.35
39.70
39.70
39.40
38.85
38.02
36.79
35.05
32.74
29.94
26.82
23.66
20.70
18.02
15.59
13.29
10.99
8.60
6.05
3.30
0.31
-3.02
-6.66
-10.48
-14.25
-17.77
-20.92
-23.83
-26.78
-30.13
-34.23
-39.18
-44.86
-50.78
-56.24
-60.32
-62.20
-61.23
-57.27
-50.63
-42.13
-32.83
-23.78
-15.71
-8.93
-3.33
1.40
5.55
9.20
12.28
14.67
16.40
17.71
18.98
20.48
22.30
24.19
25.83
26.92
27.35
27.22
26.70
25.91
24.83
23.34
21.33
18.79
15.84
12.76
9.83
7.25
5.00
2.90
0.62
-2.08
-5.27
-8.71
-12.03
-14.83
-16.88
-18.18
-18.97
-19.58
-20.38
-21.65
-23.53
-26.12
-29.33
-32.90
-36.31
-38.83
-39.68
-38.27
-34.40
-28.40
-20.98
-13.03
-5.32
1.61
7.52
12.33
16.03
18.61
20.16
20.84
20.95
20.85
20.85
21.06
21.52
22.11
22.75
23.39
23.98
24.50
24.87
24.98
24.74
24.07
22.92
21.32
19.36
17.20
15.06
13.13
11.49
10.05
8.56
6.73
4.28
1.11
-2.65
-6.71
-10.74
-14.44
-17.65
-20.41
-22.98
-25.73
-29.06
-33.20
-38.07
-43.13
-47.50
-50.15
-50.28
-47.64
-42.54
-35.77
-28.26
-20.77
-13.72
-7.24
-1.29
4.14
8.99
13.17
16.65
19.60
22.27
24.94
27.76
30.66
33.42
35.75
37.46
38.50
38.95
39.02
38.82
38.43
37.79
36.78
35.23
33.04
30.21
26.88
23.23
19.47
15.70
11.94
8.18
4.43
0.75
-2.83
-6.38
-10.07
-14.15
-18.81
-24.01
-29.42
-34.45
-38.40
-40.60
-40.65
-38.44
-34.25
-28.62
-22.25
-15.81
-9.83
-4.57
-0.10
3.61
6.61
8.95
10.68
11.93
12.96
14.08
15.56
17.57
20.03
22.76
25.42
27.69
29.34
30.23
30.29
29.51
27.82
25.14
21.36
16.43
10.41
3.58
-3.66
-10.81
-17.42
-23.25
-28.31
-32.80
-37.06
-41.32
-45.61
-49.71
-53.17
-55.48
-56.20
-55.07
-52.11
-47.57
-41.85
-35.43
-28.80
-22.34
-16.41
-11.25
-7.03
-3.83
-1.61
-0.26
0.43
0.75
0.96
1.37
2.17
3.39
4.86
6.30
7.31
7.56
6.89
5.38
3.23
0.77
-1.73
-4.12
-6.29
-8.26
-10.02
-11.62
-13.13
-14.73
-16.72
-19.51
-23.58
-29.15
-36.09
-43.75
-51.05
-56.71
-59.67
-59.37
-55.84
-49.63
-41.55
-32.45
-23.06
-14.00
-5.77
1.17
6.53
10.21
12.42
13.59
14.28
14.99
15.98
17.25
18.61
19.76
20.48
20.69
20.42
19.78
18.86
17.74
16.46
15.03
13.39
11.41
8.85
5.42
0.89
-4.85
-11.74
-19.57
-27.98
-36.55
-44.71
-51.75
-56.89
-59.46
-59.04
-55.65
-49.76
-42.13
-33.56
-24.68
-15.81
-7.09
1.38
9.39
16.58
22.50
26.85
29.65
31.21
32.06
32.70
33.38
34.11
34.74
35.08
35.12
34.95
34.69
34.31
33.58
32.13
29.55
25.62
20.35
13.97
6.78
-0.90
-8.90
-17.13
-25.46
-33.58
-40.88
-46.48
-49.47
-49.20
-45.57
-39.15
-30.98
-22.32
-14.25
-7.33
-1.65
3.13
7.45
11.64
15.82
20.02
24.35
28.91
33.68
38.30
42.00
43.87
43.27
40.15
35.16
29.35
23.66
18.56
13.99
9.58
5.04
0.34
-4.30
-8.61
-12.52
-16.22
-20.05
-24.33
-29.11
-34.07
-38.49
-41.24
-41.24
-37.64
-30.33
-19.94
-7.79
4.70
16.39
26.78
35.97
44.37
52.36
60.12
67.64
74.92
82.01
88.90
95.39
100.94
104.78
106.37
105.66
103.32
100.54
98.48
97.85
98.71
100.53
102.52
103.96
104.37
103.51
101.29
97.77
93.19
87.99
82.70
77.74
73.24
68.90
64.20
58.62
51.85
43.84
34.71
24.56
13.49
1.59
-10.79
-22.95
-33.90
-42.54
-47.92
-49.60
-47.83
-43.55
-38.27
-33.71
-31.48
-32.62
-37.42
-45.32
-55.07
-65.07
-73.73
-79.84
-82.79
-82.68
-80.17
-76.23
-71.74
-67.24
-62.79
-58.14
-52.92
-46.90
-40.16
-33.11
-26.31
-20.39
-15.93
-13.33
-12.80
-14.22
-17.14
-20.73
-23.94
-25.71
-25.28
-22.39
-17.28
-10.61
-3.13
4.51
11.88
18.75
24.92
30.14
34.10
36.63
37.73
37.77
37.31
37.05
37.48
38.77
40.69
42.75
44.39
45.25
45.29
44.82
44.41
44.66
45.94
48.01
49.89
49.87
46.01
36.79
21.74
1.72
-21.31
-44.83
-66.33
-83.71
-95.40
-100.36
-98.20
-89.48
-75.99
-60.49
-46.23
-35.91
-30.87
-30.72
-33.70
-37.46
-39.87
-39.53
-35.91
-29.19
-19.97
-9.09
2.58
14.15
24.86
34.14
41.63
47.24
51.09
53.50
54.97
56.03
57.24
58.99
61.41
64.45
67.93
71.84
76.44
82.17
89.27
97.32
105.02
110.38
111.39
106.72
96.33
81.34
63.54
44.61
25.62
6.91
-11.62
-30.05
-48.11
-65.31
-81.02
-94.81
-106.59
-116.66
-125.64
-134.30
-143.33
-153.12
-163.58
-174.13
-183.89
-191.87
-197.14
-198.87
-196.44
-189.48
-178.09
-162.89
-145.10
-126.17
-107.50
-89.99
-73.99
-59.43
-46.06
-33.74
-22.48
-12.45
-3.92
2.80
7.38
9.62
9.62
7.88
5.32
3.15
2.48
4.11
8.26
14.67
22.65
31.38
39.94
47.49
53.40
57.34
59.39
59.94
59.57
58.83
57.95
56.83
55.07
52.20
47.91
42.27
35.66
28.66
21.84
15.56
9.96
5.06
0.81
-2.81
-5.85
-8.37
-10.50
-12.34
-13.94
-15.14
-15.80
-15.82
-15.26
-14.31
-13.11
-11.59
-9.37
-5.92
-0.78
6.13
14.44
23.40
32.11
39.79
46.03
50.77
54.16
56.35
57.32
56.93
55.08
51.86
47.65
43.00
38.41
34.13
30.25
26.74
23.68
21.29
19.83
19.37
19.69
20.31
20.61
20.09
18.58
16.16
13.17
10.17
7.71
6.22
5.87
6.40
7.22
7.58
6.87
4.75
1.28
-3.28
-8.53
-14.01
-19.14
-23.17
-25.37
-25.16
-22.52
-18.02
-12.71
-7.72
-3.73
-0.77
1.73
4.55
8.25
12.90
18.12
23.49
28.81
34.38
40.79
48.61
58.00
68.43
78.80
87.83
94.52
98.50
100.17
100.36
100.01
99.82
100.14
100.94
102.00
102.82
102.71
100.75
95.97
87.62
75.60
60.55
43.89
27.30
12.31
-0.19
-10.04
-17.65
-23.63
-28.55
-32.72
-36.34
-39.63
-42.94
-46.75
-51.52
-57.46
-64.39
-71.77
-78.93
-85.36
-90.80
-95.41
-99.45
-103.19
-106.65
-109.71
-112.18
-113.89
-114.83
-115.04
-114.61
-113.54
-111.78
-109.27
-106.05
-102.21
-97.92
-93.33
-88.48
-83.32
-77.74
-71.62
-64.94
-57.84
-50.54
-43.37
-36.61
-30.40
-24.71
-19.42
-14.34
-9.39
-4.63
-0.27
3.35
5.93
7.24
7.29
6.28
4.56
2.49
0.29
-2.02
-4.61
-7.74
-11.74
-16.84
-23.13
-30.46
-38.32
-45.82
-51.73
-54.91
-54.60
-50.79
-44.21
-36.01
-27.37
-19.08
-11.41
-4.31
2.38
8.63
14.22
18.80
22.15
24.34
25.70
26.68
27.71
29.01
30.59
32.27
33.82
35.05
35.86
36.24
36.20
35.72
34.74
33.22
31.23
28.90
26.44
23.98
21.55
19.02
16.22
13.00
9.35
5.38
1.28
-2.75
-6.64
-10.42
-14.29
-18.53
-23.45
-29.31
-36.26
-44.14
-52.38
-59.96
-65.66
-68.30
-67.13
-62.14
-54.00
-43.88
-33.07
-22.55
-12.86
-4.13
3.78
10.98
17.49
23.19
28.00
31.93
35.14
37.90
40.51
43.11
45.73
48.26
50.52
52.39
53.75
54.48
54.48
53.64
51.91
49.38
46.29
42.90
39.46
36.00
32.46
28.63
24.40
19.79
14.94
10.10
5.46
1.11
-3.05
-7.28
-11.95
-17.49
-24.24
-32.32
-41.41
-50.65
-58.78
-64.35
-66.22
-63.86
-57.54
-48.24
-37.31
-26.03
-15.32
-5.62
2.99
10.58
17.18
22.73
27.18
30.61
33.30
35.62
37.96
40.51
43.25
45.99
48.48
50.49
51.94
52.75
52.85
52.18
50.71
48.47
45.61
42.30
38.69
34.87
30.81
26.48
21.83
16.85
11.62
6.23
0.88
-4.21
-8.89
-13.20
-17.52
-22.54
-29.09
-37.63
-47.97
-58.93
-68.56
-74.70
-75.58
-70.33
-59.11
-43.07
-24.07
-4.46
13.34
27.34
36.49
40.94
41.98
41.38
40.73
40.93
42.09
43.93
46.24
49.11
52.73
57.05
61.52
65.23
67.37
67.63
66.45
64.78
63.56
63.38
64.11
65.09
65.42
64.43
61.98
58.52
54.74
51.27
48.23
45.08
40.74
33.88
23.28
8.08
-11.92
-36.08
-62.83
-89.74
-113.90
-132.61
-144.09
-148.01
-145.57
-138.99
-130.64
-122.28
-114.66
-107.70
-100.88
-93.79
-86.37
-78.85
-71.50
-64.30
-56.98
-49.13
-40.52
-31.26
-21.78
-12.52
-3.65
5.11
14.32
24.48
35.58
46.83
56.84
64.07
67.41
66.75
63.01
57.85
53.01
49.71
48.22
47.87
47.45
45.74
41.90
35.74
27.57
18.17
8.59
0.11
-5.97
-8.55
-7.08
-1.81
6.17
15.28
24.02
31.30
36.79
40.72
43.58
45.77
47.45
48.52
48.87
48.46
47.46
46.14
44.73
43.34
41.87
40.09
37.81
34.93
31.53
27.71
23.51
18.87
13.61
7.67
1.14
-5.63
-12.15
-18.02
-23.07
-27.45
-31.58
-36.03
-41.32
-47.76
-55.30
-63.40
-70.98
-76.59
-78.75
-76.42
-69.39
-58.48
-45.22
-31.41
-18.55
-7.50
1.51
8.62
14.07
18.01
20.56
21.94
22.58
23.09
24.03
25.67
27.93
30.37
32.47
33.82
34.27
33.93
32.95
31.42
29.25
26.26
22.33
17.52
12.12
6.56
1.19
-3.79
-8.51
-13.34
-18.84
-25.46
-33.36
-42.15
-50.78
-57.80
-61.67
-61.19
-55.99
-46.64
-34.49
-21.22
-8.35
3.14
12.84
20.80
27.21
32.27
36.13
38.92
40.79
41.89
42.38
42.34
41.86
41.06
40.01
38.79
37.30
35.33
32.62
29.04
24.70
19.90
15.04
10.39
5.97
1.60
-3.09
-8.44
-14.75
-22.14
-30.45
-39.09
-47.01
-52.84
-55.19
-53.13
-46.54
-36.20
-23.57
-10.37
1.94
12.45
20.77
26.92
31.03
33.28
33.95
33.47
32.52
31.82
31.91
32.91
34.49
36.04
36.97
37.01
36.24
34.96
33.47
31.80
29.70
26.72
22.53
17.06
10.64
3.88
-2.54
-8.15
-12.89
-17.09
-21.34
-26.34
-32.63
-40.43
-49.51
-59.05
-67.73
-73.95
-76.13
-73.28
-65.34
-53.23
-38.68
-23.60
-9.61
2.42
12.30
20.29
26.73
31.77
35.38
37.59
38.64
39.08
39.61
40.77
42.76
45.28
47.70
49.33
49.68
48.68
46.59
43.87
40.93
37.94
34.87
31.47
27.51
22.86
17.61
12.00
6.41
1.17
-3.51
-7.67
-11.61
-15.75
-20.58
-26.52
-33.81
-42.36
-51.66
-60.78
-68.41
-73.06
-73.46
-68.97
-59.86
-47.32
-33.10
-19.05
-6.51
3.87
12.16
18.79
24.27
28.88
32.73
35.82
38.17
39.96
41.40
42.71
43.98
45.16
46.12
46.68
46.77
46.35
45.42
43.95
41.87
39.15
35.83
32.09
28.18
24.29
20.54
16.79
12.86
8.52
3.73
-1.38
-6.53
-11.44
-15.97
-20.16
-24.30
-28.81
-34.19
-40.76
-48.56
-57.14
-65.46
-72.05
-75.34
-74.15
-68.11
-57.87
-44.87
-30.97
-17.75
-6.21
3.31
10.97
17.09
21.91
25.52
28.03
29.65
30.81
31.98
33.54
35.56
37.78
39.76
41.06
41.44
40.98
39.96
38.70
37.36
35.86
33.93
31.32
27.96
24.06
20.05
16.35
13.18
10.48
7.90
5.01
1.49
-2.71
-7.39
-12.15
-16.61
-20.60
-24.21
-27.76
-31.69
-36.39
-42.12
-48.86
-56.21
-63.31
-68.91
-71.64
-70.37
-64.66
-55.04
-42.88
-29.96
-17.89
-7.64
0.60
7.17
12.53
16.95
20.39
22.81
24.29
25.16
25.96
27.07
28.61
30.34
31.86
32.81
33.11
32.91
32.46
31.96
31.39
30.53
29.08
26.84
23.78
20.16
16.40
12.99
10.26
8.24
6.60
4.79
2.28
-1.24
-5.63
-10.43
-15.00
-18.87
-21.95
-24.52
-27.15
-30.44
-34.81
-40.38
-46.90
-53.75
-60.02
-64.56
-66.30
-64.44
-58.85
-50.06
-39.25
-27.79
-16.92
-7.46
0.29
6.39
11.07
14.51
16.87
18.32
19.12
19.66
20.32
21.42
23.04
24.98
26.88
28.34
29.08
29.12
28.64
27.93
27.18
26.38
25.33
23.78
21.58
18.76
15.58
12.37
9.43
6.89
4.64
2.42
-0.07
-3.04
-6.45
-10.07
-13.60
-16.78
-19.56
-22.13
-24.83
-28.04
-32.10
-37.16
-43.17
-49.82
-56.46
-62.12
-65.68
-66.16
-63.06
-56.56
-47.50
-37.13
-26.74
-17.24
-9.13
-2.45
2.92
7.10
10.20
12.29
13.57
14.36
15.11
16.24
17.97
20.27
22.81
25.15
26.90
27.90
28.23
28.15
27.89
27.49
26.80
25.55
23.51
20.69
17.36
13.98
10.96
8.52
6.53
4.65
2.45
-0.34
-3.75
-7.55
-11.38
-14.97
-18.16
-21.06
-23.94
-27.15
-31.05
-35.86
-41.62
-48.04
-54.47
-59.93
-63.26
-63.49
-60.12
-53.33
-44.02
-33.51
-23.15
-13.91
-6.24
-0.08
4.87
8.88
12.06
14.44
16.07
17.18
18.13
19.32
20.93
22.89
24.88
26.57
27.75
28.46
28.88
29.12
29.19
28.86
27.89
26.08
23.45
20.19
16.65
13.23
10.25
7.86
5.95
4.20
2.19
-0.46
-3.83
-7.72
-11.70
-15.39
-18.60
-21.50
-24.53
-28.17
-32.81
-38.57
-45.19
-52.00
-58.02
-62.07
-63.14
-60.60
-54.54
-45.71
-35.33
-24.70
-14.87
-6.38
0.65
6.34
10.83
14.18
16.41
17.69
18.34
18.85
19.73
21.27
23.45
25.97
28.35
30.27
31.57
32.29
32.52
32.31
31.58
30.20
28.09
25.36
22.26
19.16
16.38
14.06
12.07
10.15
7.90
5.10
1.66
-2.27
-6.37
-10.37
-14.09
-17.53
-20.87
-24.44
-28.57
-33.54
-39.47
-46.18
-53.12
-59.37
-63.75
-65.10
-62.65
-56.36
-46.96
-35.78
-24.34
-13.89
-5.14
1.79
7.17
11.40
14.77
17.41
19.37
20.77
21.87
23.04
24.58
26.62
29.02
31.42
33.45
34.82
35.48
35.55
35.18
34.42
33.19
31.37
28.88
25.85
22.55
19.34
16.46
13.93
11.52
8.95
5.94
2.45
-1.35
-5.19
-8.77
-12.01
-15.03
-18.20
-21.93
-26.62
-32.49
-39.45
-47.07
-54.46
-60.44
-63.71
-63.30
-58.80
-50.61
-39.86
-28.04
-16.60
-6.56
1.58
7.83
12.50
15.95
18.57
20.64
22.39
24.03
25.70
27.46
29.32
31.21
33.02
34.57
35.70
36.28
36.29
35.74
34.70
33.22
31.33
29.00
26.29
23.33
20.32
17.42
14.70
12.02
9.18
6.00
2.44
-1.35
-5.13
-8.71
-12.08
-15.43
-19.06
-23.38
-28.70
-35.11
-42.39
-49.85
-56.45
-60.92
-62.17
-59.62
-53.41
-44.40
-33.89
-23.21
-13.36
-4.86
2.23
8.09
12.94
16.89
19.96
22.15
23.55
24.41
25.11
26.01
27.35
29.10
31.08
32.96
34.48
35.46
35.82
35.53
34.56
32.88
30.56
27.78
24.82
21.96
19.34
16.85
14.25
11.20
7.54
3.30
-1.26
-5.77
-9.93
-13.63
-16.97
-20.27
-24.01
-28.65
-34.50
-41.48
-48.98
-55.87
-60.72
-62.24
-59.68
-53.18
-43.68
-32.65
-21.59
-11.61
-3.23
3.56
9.02
13.42
16.90
19.52
21.33
22.55
23.54
24.70
26.27
28.26
30.43
32.39
33.82
34.56
34.60
34.02
32.91
31.30
29.15
26.55
23.66
20.70
17.86
15.16
12.45
9.54
6.32
2.88
-0.56
-3.80
-6.80
-9.72
-12.85
-16.45
-20.73
-25.75
-31.56
-38.06
-44.98
-51.61
-56.85
-59.47
-58.48
-53.60
-45.42
-35.26
-24.63
-14.84
-6.51
0.32
6.01
10.97
15.37
19.21
22.36
24.81
26.69
28.29
29.88
31.59
33.36
34.95
36.14
36.81
36.97
36.70
36.07
35.06
33.59
31.64
29.25
26.58
23.82
21.13
18.55
15.97
13.22
10.08
6.49
2.50
-1.68
-5.75
-9.48
-12.81
-15.89
-19.09
-22.86
-27.60
-33.48
-40.33
-47.56
-54.21
-59.10
-61.12
-59.53
-54.29
-46.03
-35.98
-25.50
-15.71
-7.18
0.02
6.17
11.53
16.21
20.15
23.23
25.52
27.30
28.97
30.86
33.08
35.43
37.55
39.13
39.98
40.17
39.84
39.14
38.08
36.60
34.63
32.13
29.19
25.95
22.58
19.22
15.95
12.76
9.59
6.34
2.97
-0.46
-3.86
-7.10
-10.19
-13.31
-16.80
-20.98
-26.13
-32.27
-39.14
-46.18
-52.51
-57.04
-58.72
-56.82
-51.24
-42.65
-32.33
-21.78
-12.21
-4.25
2.15
7.39
11.85
15.68
18.77
20.94
22.21
22.91
23.52
24.52
26.07
28.02
29.91
31.24
31.69
31.20
30.00
28.41
26.72
25.05
23.37
21.55
19.41
16.85
13.82
10.39
6.68
2.80
-1.10
-4.96
-8.74
-12.49
-16.27
-20.28
-24.75
-29.96
-36.08
-43.06
-50.43
-57.27
-62.31
-64.31
-62.45
-56.74
-48.05
-37.83
-27.68
-18.82
-11.81
-6.58
-2.67
0.50
3.49
6.73
10.63
15.52
21.64
28.90
36.88
44.82
51.83
57.18
60.45
61.63
61.01
59.03
56.15
52.70
48.97
45.16
41.41
37.81
34.38
31.01
27.52
23.72
19.43
14.68
9.63
4.59
-0.13
-4.36
-8.13
-11.75
-15.67
-20.33
-26.06
-32.89
-40.46
-47.99
-54.35
-58.31
-58.81
-55.35
-48.18
-38.30
-27.15
-16.11
-6.17
2.35
9.63
16.06
21.95
27.35
32.14
36.19
39.54
42.48
45.38
48.56
52.14
55.98
59.82
63.39
66.49
69.06
71.06
72.43
73.09
72.95
71.96
70.17
67.65
64.47
60.67
56.29
51.46
46.47
41.71
37.50
33.99
30.95
27.86
24.01
18.82
11.99
3.63
-5.71
-15.22
-23.81
-30.40
-34.07
-34.28
-31.07
-25.08
-17.30
-8.88
-0.73
6.57
12.84
18.10
22.38
25.68
27.89
29.00
29.09
28.47
27.56
26.78
26.40
26.43
26.59
26.45
25.58
23.75
20.90
17.24
13.00
8.36
3.38
-1.95
-7.64
-13.61
-19.69
-25.64
-31.23
-36.31
-40.73
-44.49
-47.62
-50.31
-52.86
-55.71
-59.29
-63.87
-69.36
-75.14
-80.12
-83.04
-82.80
-78.88
-71.51
-61.62
-50.48
-39.30
-28.94
-19.78
-11.78
-4.68
1.83
7.96
13.70
18.86
23.05
25.86
27.06
26.67
24.93
22.25
18.96
15.25
11.18
6.83
2.47
-1.50
-4.73
-7.17
-9.12
-11.17
-13.88
-17.46
-21.63
-25.80
-29.31
-31.83
-33.41
-34.48
-35.62
-37.22
-39.48
-42.33
-45.61
-49.04
-52.33
-55.01
-56.53
-56.41
-54.33
-50.40
-45.07
-39.01
-32.83
-26.96
-21.53
-16.59
-12.17
-8.37
-5.32
-3.07
-1.42
0.02
1.66
3.72
6.08
8.40
10.23
11.18
11.23
10.56
9.51
8.30
6.97
5.34
3.19
0.43
-2.89
-6.51
-10.23
-13.89
-17.47
-21.06
-24.72
-28.49
-32.42
-36.56
-40.96
-45.63
-50.38
-54.76
-58.11
-59.67
-58.87
-55.60
-50.25
-43.58
-36.54
-29.93
-24.27
-19.79
-16.57
-14.61
-13.90
-14.32
-15.49
-16.83
-17.60
-17.24
-15.55
-12.76
-9.45
-6.32
-3.97
-2.78
-2.78
-3.85
-5.71
-8.08
-10.72
-13.48
-16.36
-19.45
-22.95
-27.11
-32.00
-37.58
-43.65
-49.99
-56.48
-63.26
-70.62
-78.79
-87.79
-97.22
-106.26
-113.78
-118.56
-119.57
-116.03
-107.69
-94.83
-78.32
-59.46
-39.75
-20.66
-3.29
11.66
23.94
33.57
40.68
45.39
47.83
48.22
46.91
44.48
41.69
39.20
37.54
36.90
37.25
38.42
40.22
42.56
45.36
48.55
51.90
55.07
57.61
59.12
59.40
58.44
56.40
53.52
49.94
45.77
41.12
36.27
31.67
27.96
25.79
25.56
27.34
30.86
35.58
40.84
46.04
50.69
54.51
57.35
59.20
60.09
60.10
59.30
57.83
55.96
54.06
52.51
51.44
50.79
50.24
49.47
48.33
46.84
45.12
43.18
40.77
37.52
33.13
27.59
21.20
14.48
7.94
1.88
-3.65
-8.81
-13.91
-19.27
-25.04
-31.13
-36.99
-41.68
-44.10
-43.42
-39.47
-32.86
-24.76
-16.40
-8.65
-1.78
4.29
9.73
14.48
18.29
20.90
22.40
23.29
24.33
26.09
28.73
31.89
34.91
37.21
38.54
39.04
39.06
38.89
38.61
38.05
36.96
35.21
32.81
29.90
26.66
23.26
19.83
16.46
13.23
10.19
7.31
4.40
1.24
-2.28
-6.05
-9.56
-12.13
-13.01
-11.83
-8.70
-4.27
0.50
4.66
7.58
8.99
9.01
7.96
6.24
4.23
2.20
0.43
-0.93
-1.86
-2.48
-3.02
-3.75
-4.87
-6.47
-8.54
-10.97
-13.63
-16.33
-18.91
-21.18
-23.05
-24.48
-25.60
-26.68
-28.03
-29.92
-32.46
-35.58
-39.07
-42.68
-46.19
-49.34
-51.81
-53.14
-52.84
-50.53
-46.21
-40.28
-33.52
-26.80
-20.81
-15.83
-11.80
-8.42
-5.47
-2.88
-0.75
0.76
1.63
2.05
2.36
2.95
4.04
5.57
7.24
8.70
9.68
10.10
10.08
9.73
9.16
8.34
7.21
5.80
4.28
2.94
2.08
1.78
1.85
1.83
1.14
-0.63
-3.49
-7.03
-10.45
-12.89
-13.66
-12.46
-9.47
-5.13
-0.02
5.28
10.38
14.90
18.63
21.36
22.93
23.28
22.57
21.09
19.32
17.72
16.61
16.08
16.00
16.10
16.13
16.00
15.72
15.45
15.22
14.97
14.47
13.40
11.55
8.87
5.57
2.01
-1.38
-4.29
-6.62
-8.54
-10.39
-12.59
-15.43
-18.98
-23.07
-27.22
-30.83
-33.29
-34.10
-33.01
-30.13
-25.89
-20.88
-15.71
-10.83
-6.37
-2.37
1.21
4.31
6.74
8.38
9.23
9.52
9.61
9.84
10.41
11.26
12.21
13.04
13.63
13.91
13.87
13.46
12.63
11.36
9.71
7.85
5.88
3.91
1.88
-0.31
-2.78
-5.64
-8.97
-12.77
-16.97
-21.36
-25.46
-28.64
-30.24
-29.75
-27.12
-22.76
-17.48
-12.22
-7.76
-4.47
-2.32
-1.02
-0.20
0.47
1.10
1.72
2.26
2.70
3.06
3.39
3.76
4.22
4.81
5.53
6.30
7.03
7.52
7.58
7.10
6.02
4.47
2.64
0.74
-1.11
-2.91
-4.81
-6.98
-9.61
-12.85
-16.73
-21.08
-25.53
-29.43
-32.00
-32.58
-30.78
-26.69
-20.87
-14.13
-7.25
-0.85
4.81
9.64
13.64
16.78
18.97
20.18
20.57
20.46
20.31
20.55
21.44
22.97
24.93
27.02
28.88
30.31
31.17
31.46
31.26
30.75
30.10
29.48
28.97
28.59
28.27
27.92
27.56
27.26
27.12
27.22
27.54
27.95
28.33
28.68
29.15
29.87
30.88
31.85
32.20
31.18
28.13
22.85
15.58
6.89
-2.46
-11.73
-20.27
-27.41
-32.48
-34.96
-34.59
-31.61
-26.78
-21.10
-15.57
-10.84
-7.07
-4.10
-1.65
0.46
2.19
3.36
3.76
3.39
2.42
1.27
0.42
0.27
0.98
2.44
4.36
6.38
8.24
9.86
11.22
12.30
12.99
13.08
12.47
11.20
9.60
8.11
7.04
6.42
5.93
4.99
3.16
0.27
-3.40
-7.29
-10.78
-13.51
-15.52
-17.17
-18.98
-21.44
-24.77
-29.02
-33.96
-39.21
-44.20
-48.26
-50.65
-50.80
-48.49
-44.00
-38.03
-31.50
-25.19
-19.59
-14.72
-10.31
-6.08
-1.86
2.28
6.06
9.21
11.59
13.29
14.58
15.75
17.00
18.36
19.67
20.76
21.47
21.81
21.89
21.88
21.91
21.93
21.76
21.23
20.16
18.57
16.61
14.51
12.52
10.70
9.01
7.30
5.44
3.37
1.15
-1.10
-3.27
-5.33
-7.29
-9.22
-11.21
-13.33
-15.76
-18.72
-22.45
-27.09
-32.56
-38.42
-43.88
-47.98
-49.84
-48.96
-45.43
-39.89
-33.31
-26.60
-20.40
-14.91
-10.05
-5.62
-1.52
2.17
5.33
7.89
9.97
11.80
13.68
15.75
18.01
20.22
22.14
23.56
24.48
25.03
25.43
25.82
26.20
26.38
26.14
25.28
23.82
21.95
19.93
18.04
16.35
14.85
13.43
11.97
10.44
8.80
7.03
5.05
2.81
0.32
-2.28
-4.79
-7.03
-8.98
-10.84
-13.00
-15.83
-19.54
-23.99
-28.69
-32.90
-35.87
-37.00
-36.04
-33.13
-28.70
-23.37
-17.76
-12.37
-7.46
-3.14
0.61
3.84
6.61
8.92
10.81
12.30
13.49
14.52
15.49
16.43
17.33
18.12
18.82
19.46
20.10
20.80
21.47
21.97
22.08
21.60
20.49
18.83
16.85
14.85
13.14
11.91
11.21
10.90
10.70
10.26
9.27
7.55
5.12
2.20
-0.87
-3.75
-6.17
-8.11
-9.77
-11.49
-13.68
-16.64
-20.44
-24.86
-29.39
-33.33
-35.95
-36.70
-35.31
-31.86
-26.83
-20.90
-14.84
-9.30
-4.69
-1.15
1.46
3.43
5.08
6.65
8.24
9.82
11.32
12.69
13.95
15.18
16.43
17.67
18.80
19.65
20.11
20.17
19.95
19.55
19.07
18.46
17.61
16.37
14.67
12.56
10.22
7.82
5.53
3.37
1.29
-0.76
-2.80
-4.76
-6.52
-8.04
-9.43
-10.95
-12.95
-15.73
-19.36
-23.65
-28.11
-32.11
-34.98
-36.17
-35.39
-32.71
-28.52
-23.45
-18.14
-13.12
-8.66
-4.86
-1.65
1.01
3.16
4.81
6.01
6.92
7.73
8.61
9.62
10.78
12.03
13.34
14.68
15.98
17.11
17.89
18.17
17.91
17.13
15.95
14.49
12.85
11.10
9.30
7.51
5.76
4.00
2.11
-0.00
-2.33
-4.72
-7.00
-9.01
-10.87
-12.81
-15.20
-18.32
-22.22
-26.71
-31.30
-35.34
-38.12
-39.02
-37.71
-34.18
-28.84
-22.39
-15.64
-9.25
-3.62
1.06
4.82
7.71
9.83
11.31
12.33
13.06
13.72
14.39
15.10
15.85
16.60
17.35
18.05
18.58
18.80
18.53
17.70
16.39
14.83
13.26
11.83
10.50
9.07
7.32
5.13
2.52
-0.28
-3.01
-5.44
-7.54
-9.42
-11.37
-13.72
-16.73
-20.50
-24.93
-29.66
-34.13
-37.65
-39.59
-39.48
-37.20
-32.98
-27.41
-21.25
-15.20
-9.71
-4.91
-0.79
2.79
5.84
8.31
10.11
11.32
12.18
13.05
14.25
15.92
17.95
20.06
21.90
23.20
23.88
24.00
23.72
23.18
22.35
21.14
19.36
16.91
13.91
10.68
7.63
5.15
3.36
2.09
0.98
-0.46
-2.61
-5.66
-9.58
-14.05
-18.55
-22.41
-24.96
-25.66
-24.30
-21.05
-16.40
-11.01
-5.55
-0.53
3.75
7.15
9.72
11.46
12.44
12.74
12.52
11.97
11.38
10.96
10.85
11.05
11.46
11.89
12.16
12.16
11.84
11.19
10.18
8.78
6.99
4.82
2.39
-0.10
-2.48
-4.69
-6.78
-8.94
-11.47
-14.62
-18.55
-23.24
-28.48
-33.87
-38.76
-42.40
-44.05
-43.25
-39.94
-34.58
-27.94
-20.92
-14.26
-8.37
-3.34
0.88
4.34
6.99
8.75
9.66
9.96
10.10
10.58
11.70
13.44
15.43
17.26
18.63
19.57
20.26
20.87
21.33
21.27
20.21
17.77
13.97
9.22
4.22
-0.36
-4.10
-6.97
-9.30
-11.66
-14.71
-18.99
-24.81
-32.04
-39.93
-47.20
-52.17
-53.13
-48.83
-39.04
-24.84
-8.62
6.58
18.08
24.48
26.08
24.53
21.96
20.04
19.37
19.64
20.23
20.85
21.69
23.29
25.92
29.29
32.62
34.92
35.61
34.68
32.70
30.42
28.52
27.17
26.09
24.71
22.46
19.08
14.74
9.98
5.45
1.65
-1.31
-3.70
-6.07
-9.00
-12.96
-18.17
-24.53
-31.57
-38.45
-44.14
-47.48
-47.61
-44.17
-37.45
-28.38
-18.19
-8.10
1.03
8.85
15.38
20.82
25.36
29.12
32.11
34.42
36.26
37.93
39.77
41.94
44.41
46.88
48.96
50.34
50.88
50.68
49.95
48.84
47.36
45.43
42.96
39.98
36.68
33.26
29.84
26.32
22.42
17.89
12.63
6.81
0.78
-5.08
-10.52
-15.56
-20.41
-25.47
-31.11
-37.58
-44.86
-52.52
-59.70
-65.30
-68.17
-67.49
-63.07
-55.40
-45.59
-34.98
-24.78
-15.74
-8.13
-1.85
3.35
7.67
11.20
14.00
16.20
18.09
19.99
22.18
24.68
27.30
29.69
31.56
32.84
33.67
34.21
34.55
34.51
33.79
32.13
29.52
26.31
23.01
20.09
17.73
15.75
13.72
11.22
8.05
4.27
0.20
-3.77
-7.35
-10.44
-13.15
-15.78
-18.72
-22.35
-26.92
-32.50
-38.85
-45.38
-51.16
-55.09
-56.11
-53.63
-47.74
-39.25
-29.44
-19.65
-10.83
-3.41
2.72
7.87
12.34
16.19
19.37
21.85
23.74
25.32
26.88
28.60
30.40
32.03
33.19
33.72
33.67
33.27
32.77
32.28
31.70
30.77
29.22
26.96
24.18
21.27
18.67
16.55
14.80
13.00
10.67
7.54
3.70
-0.42
-4.32
-7.68
-10.50
-13.14
-16.04
-19.59
-23.95
-29.12
-34.91
-40.96
-46.63
-51.00
-52.99
-51.75
-46.99
-39.25
-29.75
-20.02
-11.28
-4.16
1.37
5.71
9.25
12.15
14.34
15.76
16.53
17.02
17.76
19.12
21.18
23.69
26.20
28.28
29.67
30.30
30.24
29.60
28.43
26.73
24.56
22.00
19.21
16.33
13.49
10.66
7.80
4.82
1.65
-1.69
-5.06
-8.34
-11.35
-14.03
-16.45
-18.82
-21.43
-24.69
-28.95
-34.38
-40.84
-47.68
-53.79
-57.87
-58.77
-55.95
-49.76
-41.26
-31.84
-22.71
-14.57
-7.54
-1.46
3.84
8.36
11.94
14.52
16.22
17.44
18.64
20.18
22.20
24.55
26.94
29.03
30.60
31.54
31.90
31.78
31.21
30.14
28.42
25.95
22.79
19.25
15.75
12.68
10.17
8.06
5.88
3.21
-0.19
-4.18
-8.39
-12.40
-15.97
-19.19
-22.39
-26.05
-30.61
-36.32
-43.09
-50.49
-57.72
-63.72
-67.37
-67.80
-64.61
-58.10
-49.18
-39.11
-29.12
-20.03
-12.13
-5.25
0.96
6.75
12.15
16.99
21.11
24.52
27.44
30.19
33.04
36.01
38.95
41.64
43.92
45.75
47.16
48.18
48.69
48.52
47.46
45.47
42.67
39.37
35.91
32.53
29.27
25.94
22.26
17.98
13.05
7.60
1.91
-3.78
-9.31
-14.71
-20.16
-25.90
-32.21
-39.26
-47.06
-55.21
-62.84
-68.66
-71.25
-69.57
-63.37
-53.39
-41.15
-28.42
-16.69
-6.66
1.69
8.92
15.61
21.96
27.88
33.10
37.54
41.37
44.81
47.77
49.71
49.81
47.47
42.79
36.67
30.49
25.49
22.19
20.28
18.98
17.47
15.40
12.79
9.93
6.98
3.95
0.74
-2.70
-6.22
-9.54
-12.38
-14.49
-15.88
-16.73
-17.42
-18.43
-20.17
-22.87
-26.28
-29.73
-32.15
-32.50
-30.08
-24.79
-17.22
-8.42
0.51
8.67
15.63
21.28
25.77
29.20
31.60
32.89
33.07
32.27
30.86
29.37
28.29
27.90
28.16
28.69
29.00
28.64
27.43
25.42
22.79
19.73
16.32
12.56
8.42
3.93
-0.81
-5.60
-10.25
-14.57
-18.45
-21.91
-25.08
-28.23
-31.69
-35.79
-40.77
-46.64
-53.16
-59.78
-65.67
-69.83
-71.42
-69.88
-65.21
-57.97
-49.12
-39.74
-30.67
-22.37
-14.89
-8.13
-1.94
3.65
8.57
12.85
16.78
20.89
25.67
31.26
37.25
42.71
46.60
48.23
47.57
45.24
42.12
38.89
35.68
32.11
27.62
21.84
14.89
7.27
-0.31
-7.33
-13.66
-19.47
-25.16
-31.11
-37.59
-44.70
-52.33
-60.18
-67.65
-73.82
-77.58
-77.92
-74.23
-66.64
-56.05
-43.89
-31.69
-20.70
-11.56
-4.40
1.02
5.01
7.85
9.82
11.24
12.54
14.18
16.47
19.41
22.71
25.86
28.35
29.84
30.26
29.74
28.47
26.58
24.13
21.10
17.55
13.63
9.62
5.77
2.16
-1.39
-5.28
-10.01
-15.88
-22.81
-30.21
-37.07
-42.22
-44.60
-43.62
-39.27
-32.17
-23.33
-13.87
-4.73
3.44
10.35
15.89
20.06
22.89
24.48
25.07
25.04
24.87
24.97
25.54
26.46
27.48
28.25
28.51
28.14
27.07
25.25
22.64
19.22
15.12
10.60
6.06
1.87
-1.76
-4.75
-7.27
-9.55
-11.92
-14.73
-18.31
-22.96
-28.71
-35.16
-41.43
-46.32
-48.54
-47.23
-42.26
-34.32
-24.72
-14.92
-6.05
1.34
7.30
12.20
16.38
19.92
22.64
24.29
24.86
24.66
24.33
24.52
25.58
27.40
29.41
30.90
31.37
30.75
29.40
27.80
26.26
24.75
22.95
20.50
17.31
13.59
9.78
6.28
3.31
0.76
-1.64
-4.20
-7.15
-10.65
-14.82
-19.77
-25.51
-31.77
-37.86
-42.66
-44.89
-43.49
-38.07
-29.08
-17.81
-5.88
5.30
14.92
22.88
29.56
35.34
40.36
44.40
47.17
48.54
48.75
48.25
47.60
47.09
46.73
46.26
45.35
43.76
41.42
38.40
34.91
31.17
27.41
23.78
20.34
16.97
13.44
9.55
5.24
0.66
-3.83
-7.90
-11.36
-14.27
-16.94
-19.71
-22.89
-26.66
-31.19
-36.57
-42.87
-49.84
-56.83
-62.69
-66.06
-65.83
-61.49
-53.51
-43.12
-31.91
-21.27
-11.99
-4.16
2.56
8.53
13.86
18.35
21.77
24.11
25.71
27.18
29.05
31.49
34.26
36.83
38.74
39.80
40.10
39.94
39.53
38.92
37.97
36.55
34.66
32.43
30.07
27.71
25.35
22.84
19.99
16.65
12.88
8.84
4.81
1.03
-2.42
-5.53
-8.49
-11.57
-15.08
-19.30
-24.32
-29.92
-35.45
-39.83
-41.78
-40.31
-34.96
-26.22
-15.28
-3.67
7.29
16.88
25.06
32.19
38.68
44.61
49.78
53.78
56.35
57.43
57.24
56.03
53.96
51.02
47.10
42.15
36.27
29.80
23.23
17.04
11.62
7.14
3.59
0.83
-1.33
-2.97
-4.09
-4.57
-4.34
-3.53
-2.46
-1.62
-1.43
-2.03
-3.15
-4.19
-4.53
-3.81
-2.15
-0.12
1.51
2.08
1.28
-0.81
-3.69
-6.75
-9.29
-10.80
-10.94
-9.69
-7.33
-4.40
-1.56
0.57
1.52
1.05
-0.87
-4.11
-8.42
-13.44
-18.72
-23.74
-27.97
-31.01
-32.61
-32.83
-31.94
-30.39
-28.69
-27.25
-26.34
-26.00
-26.16
-26.64
-27.27
-27.91
-28.51
-29.09
-29.69
-30.45
-31.44
-32.67
-34.08
-35.59
-37.21
-39.08
-41.46
-44.56
-48.38
-52.60
-56.68
-60.06
-62.44
-63.82
-64.42
-64.27
-62.95
-59.51
-52.66
-41.35
-25.30
-5.31
16.82
38.67
57.57
71.01
76.81
73.73
62.06
44.25
24.98
10.36
6.26
16.21
39.94
72.90
107.62
135.96
151.68
152.14
138.53
114.92
86.47
57.79
32.00
10.61
-5.97
-17.88
-25.50
-29.43
-30.69
-30.74
-31.03
-32.61
-35.61
-39.37
-42.76
-44.75
-44.92
-43.56
-41.52
-39.77
-39.02
-39.38
-40.38
-41.20
-41.01
-39.30
-36.00
-31.54
-26.53
-21.51
-16.79
-12.32
-7.95
-3.54
0.79
4.71
7.73
9.58
10.22
9.92
9.13
8.17
7.17
6.05
4.65
2.90
0.90
-1.09
-2.76
-3.88
-4.37
-4.30
-3.78
-3.06
-2.57
-2.89
-4.57
-7.70
-11.75
-15.54
-17.73
-17.42
-14.73
-10.76
-7.16
-5.41
-6.23
-9.41
-14.05
-19.21
-24.18
-28.75
-32.97
-36.86
-40.23
-42.73
-43.95
-43.66
-41.91
-39.06
-35.66
-32.19
-28.95
-26.03
-23.35
-20.88
-18.72
-17.16
-16.50
-17.05
-18.84
-21.71
-25.25
-28.96
-32.46
-35.58
-38.47
-41.46
-45.02
-49.37
-54.40
-59.67
-64.54
-68.50
-71.27
-72.95
-73.67
-73.59
-72.55
-70.34
-66.86
-62.33
-57.31
-52.53
-48.67
-46.14
-45.09
-45.46
-47.07
-49.51
-52.06
-53.56
-52.66
-48.14
-39.39
-26.82
-11.67
4.26
19.26
32.28
43.06
52.10
60.18
67.85
75.10
81.31
85.51
86.86
84.96
80.07
73.03
65.04
57.21
50.41
44.98
40.75
37.17
33.55
29.28
24.07
18.00
11.48
5.00
-1.06
-6.57
-11.65
-16.55
-21.36
-25.98
-30.09
-33.25
-35.24
-36.13
-36.34
-36.52
-37.21
-38.61
-40.42
-41.87
-42.06
-40.21
-36.00
-29.56
-21.34
-11.91
-1.81
8.54
18.75
28.38
36.88
43.65
48.23
50.42
50.47
49.08
47.21
45.80
45.42
46.04
46.94
46.95
44.86
39.81
31.66
20.99
8.90
-3.31
-14.57
-24.25
-32.32
-39.13
-45.16
-50.73
-55.77
-59.90
-62.70
-64.06
-64.44
-64.68
-65.89
-68.84
-73.69
-79.89
-86.18
-90.78
-91.63
-86.94
-75.87
-59.05
-38.64
-17.66
1.06
15.95
27.02
35.38
42.27
48.24
52.98
55.89
56.84
56.54
56.27
57.02
58.95
61.13
62.19
61.09
57.71
52.84
47.71
43.50
40.64
38.84
37.27
35.06
31.72
27.34
22.51
18.07
14.70
12.52
11.10
9.52
6.74
2.08
-4.36
-11.53
-17.64
-20.78
-19.66
-14.18
-5.48
4.58
14.25
22.56
29.53
35.77
41.83
47.73
52.93
56.73
58.79
59.45
59.55
60.06
61.53
63.87
66.43
68.36
68.96
67.99
65.72
62.71
59.47
56.21
52.74
48.63
43.49
37.31
30.51
23.77
17.69
12.49
7.91
3.33
-1.91
-8.30
-15.99
-24.79
-34.20
-43.48
-51.67
-57.69
-60.58
-59.71
-55.04
-47.17
-37.15
-26.17
-15.24
-4.95
4.45
12.90
20.33
26.49
31.13
34.16
35.79
36.64
37.52
39.10
41.67
45.02
48.59
51.72
54.08
55.63
56.64
57.38
57.92
58.07
57.49
55.80
52.86
48.74
43.73
38.16
32.28
26.10
19.41
11.89
3.18
-6.93
-18.42
-30.90
-43.57
-55.24
-64.48
-69.87
-70.41
-65.84
-56.80
-44.73
-31.50
-18.79
-7.67
1.58
9.31
16.08
22.31
28.00
32.89
36.70
39.37
41.18
42.65
44.23
46.09
48.07
49.80
50.92
51.30
51.06
50.41
49.47
48.13
46.13
43.17
39.21
34.51
29.62
25.08
21.23
17.97
14.86
11.31
6.90
1.57
-4.36
-10.34
-15.90
-20.79
-25.16
-29.46
-34.28
-40.14
-47.28
-55.57
-64.42
-72.78
-79.27
-82.51
-81.45
-75.80
-66.14
-53.80
-40.43
-27.46
-15.73
-5.38
3.84
12.23
19.83
26.41
31.65
35.45
38.08
40.09
42.10
44.47
47.19
49.86
51.98
53.11
53.12
52.17
50.60
48.72
46.70
44.47
41.82
38.54
34.58
30.14
25.58
21.26
17.39
13.94
10.62
7.06
3.00
-1.55
-6.41
-11.26
-15.87
-20.24
-24.54
-29.13
-34.34
-40.42
-47.47
-55.38
-63.71
-71.71
-78.29
-82.28
-82.65
-78.93
-71.41
-61.08
-49.33
-37.50
-26.48
-16.58
-7.62
0.69
8.50
15.66
21.82
26.70
30.22
32.66
34.48
36.17
38.04
40.11
42.15
43.84
44.95
45.36
45.16
44.53
43.57
42.29
40.53
38.13
34.99
31.21
27.06
22.92
19.12
15.82
12.96
10.23
7.26
3.70
-0.55
-5.34
-10.28
-14.95
-19.06
-22.68
-26.17
-30.07
-34.89
-40.90
-48.00
-55.75
-63.32
-69.67
-73.68
-74.40
-71.39
-64.84
-55.59
-44.84
-33.83
-23.43
-14.04
-5.70
1.70
8.17
13.62
17.92
21.06
23.26
24.92
26.48
28.23
30.26
32.41
34.41
36.00
37.04
37.54
37.61
37.36
36.75
35.65
33.84
31.16
27.67
23.68
19.64
15.97
12.85
10.18
7.65
4.92
1.85
-1.53
-4.98
-8.31
-11.44
-14.49
-17.67
-21.33
-25.73
-31.06
-37.33
-44.23
-51.09
-56.88
-60.41
-60.73
-57.40
-50.74
-41.76
-31.74
-21.95
-13.18
-5.76
0.37
5.39
9.39
12.32
14.15
14.99
15.14
15.09
15.33
16.13
17.51
19.23
20.90
22.10
22.58
22.22
21.05
19.24
17.00
14.53
11.94
9.22
6.29
3.06
-0.47
-4.12
-7.61
-10.70
-13.25
-15.38
-17.39
-19.71
-22.74
-26.80
-32.00
-38.18
-44.92
-51.48
-56.92
-60.26
-60.71
-57.89
-51.98
-43.69
-34.06
-24.18
-14.93
-6.81
0.04
5.73
10.40
14.11
16.83
18.54
19.38
19.66
19.87
20.41
21.47
22.84
24.09
24.74
24.49
23.35
21.56
19.47
17.27
14.95
12.32
9.12
5.20
0.57
-4.53
-9.73
-14.64
-18.99
-22.71
-26.00
-29.30
-33.19
-38.20
-44.62
-52.34
-60.76
-68.85
-75.34
-79.03
-79.10
-75.36
-68.31
-59.03
-48.86
-39.00
-30.26
-22.90
-16.75
-11.54
-7.12
-3.54
-1.02
0.35
0.71
0.49
0.26
0.58
1.72
3.68
6.23
9.07
11.96
14.85
17.88
21.24
25.02
29.18
33.51
37.76
41.79
45.53
48.89
51.62
53.26
53.29
51.34
47.38
41.76
34.98
27.60
20.12
13.14
7.54
4.51
5.22
10.38
19.82
32.36
46.20
59.42
70.66
79.44
86.11
91.54
96.65
102.01
107.65
113.08
117.54
120.16
120.20
117.17
110.87
101.35
88.92
73.98
57.03
38.63
19.48
0.41
-17.74
-34.26
-48.77
-61.29
-72.18
-81.85
-90.47
-97.87
-103.52
-106.92
-107.86
-106.63
-104.04
-101.13
-98.79
-97.44
-96.96
-96.64
-95.52
-92.65
-87.31
-79.20
-68.45
-55.62
-41.51
-27.08
-13.25
-0.68
10.22
19.31
26.61
32.17
36.01
38.22
38.99
38.73
37.96
37.10
36.40
35.78
34.98
33.68
31.77
29.31
26.56
23.81
21.18
18.63
16.00
13.11
9.89
6.40
2.85
-0.58
-3.73
-6.55
-9.14
-11.60
-14.07
-16.68
-19.58
-22.92
-26.80
-31.16
-35.64
-39.60
-42.22
-42.78
-40.87
-36.57
-30.49
-23.49
-16.45
-10.03
-4.54
-0.04
3.52
6.17
7.90
8.70
8.76
8.44
8.21
8.47
9.35
10.65
11.92
12.69
12.66
11.82
10.39
8.64
6.78
4.82
2.64
0.09
-2.86
-6.06
-9.18
-11.86
-13.84
-15.13
-16.06
-17.12
-18.90
-21.80
-25.92
-30.97
-36.31
-41.00
-44.04
-44.59
-42.23
-37.06
-29.66
-20.97
-12.02
-3.70
3.40
8.91
12.74
14.95
15.71
15.36
14.43
13.50
13.18
13.82
15.41
17.58
19.75
21.33
22.04
21.92
21.26
20.39
19.41
18.21
16.48
13.96
10.68
6.92
3.15
-0.20
-2.84
-4.67
-5.75
-6.18
-6.16
-5.94
-5.83
-6.01
-6.40
-6.45
-5.32
-2.18
3.25
10.44
18.15
24.96
29.85
32.60
33.61
33.54
32.74
31.23
28.84
25.68
22.33
19.72
18.69
19.62
22.23
25.75
29.39
32.63
35.38
37.88
40.53
43.68
47.62
52.64
59.10
67.24
76.96
87.41
97.02
103.76
105.88
102.60
94.54
83.47
71.56
60.59
51.32
43.57
36.67
30.02
23.42
16.89
10.34
3.29
-5.10
-15.73
-29.07
-44.96
-62.66
-81.11
-99.33
-116.60
-132.51
-146.88
-159.52
-170.21
-178.67
-184.64
-187.94
-188.52
-186.36
-181.48
-173.98
-164.13
-152.44
-139.64
-126.57
-114.04
-102.66
-92.79
-84.59
-78.14
-73.51
-70.75
-69.78
-70.21
-71.19
-71.57
-70.12
-65.94
-58.73
-48.88
-37.30
-25.12
-13.36
-2.75
6.26
13.47
18.71
21.83
22.77
21.67
18.99
15.44
11.81
8.75
6.52
4.91
3.36
1.23
-1.92
-6.08
-10.87
-15.69
-20.11
-23.98
-27.49
-30.96
-34.62
-38.38
-41.93
-44.81
-46.68
-47.47
-47.25
-46.16
-44.34
-41.73
-38.18
-33.42
-27.20
-19.28
-9.63
1.55
13.74
26.21
38.10
48.57
57.02
63.08
66.71
68.14
67.90
66.68
65.23
64.18
63.83
64.18
64.97
65.86
66.66
67.34
67.94
68.48
68.82
68.60
67.47
65.14
61.54
56.80
51.23
45.18
38.97
32.87
27.02
21.41
15.89
10.21
4.13
-2.40
-9.09
-15.28
-19.99
-22.35
-21.78
-18.30
-12.53
-5.41
2.05
9.10
15.25
20.30
24.11
26.58
27.62
27.26
25.72
23.47
21.12
19.19
17.99
17.51
17.49
17.58
17.48
17.06
16.39
15.60
14.80
13.91
12.67
10.79
8.08
4.61
0.75
-3.04
-6.33
-9.01
-11.31
-13.76
-16.98
-21.43
-27.19
-33.82
-40.46
-45.90
-48.96
-48.76
-45.04
-38.20
-29.26
-19.48
-10.01
-1.64
5.32
10.92
15.36
18.82
21.37
23.06
24.01
24.51
24.91
25.58
26.68
28.15
29.69
30.92
31.56
31.47
30.74
29.44
27.67
25.36
22.38
18.64
14.19
9.28
4.32
-0.28
-4.31
-7.80
-11.09
-14.59
-18.75
-23.81
-29.80
-36.47
-43.23
-49.25
-53.50
-55.00
-53.12
-47.78
-39.52
-29.42
-18.77
-8.66
0.23
7.68
13.80
18.79
22.80
25.90
28.21
29.92
31.35
32.87
34.74
36.97
39.26
41.22
42.47
42.86
42.39
41.15
39.11
36.09
31.94
26.66
20.60
14.47
9.08
5.06
2.55
1.20
0.17
-1.47
-4.54
-9.54
-16.47
-24.69
-32.87
-39.27
-42.25
-40.99
-35.87
-28.32
-20.23
-13.00
-7.08
-1.91
3.42
9.49
16.12
22.57
27.99
31.98
34.72
36.74
38.50
40.13
41.49
42.36
42.64
42.42
41.85
41.17
40.43
39.59
38.52
37.05
34.99
32.24
28.69
24.41
19.56
14.44
9.38
4.69
0.51
-3.18
-6.58
-10.00
-13.78
-18.23
-23.57
-29.86
-36.82
-43.73
-49.54
-53.01
-53.15
-49.53
-42.54
-33.24
-22.98
-12.98
-4.01
3.66
10.12
15.47
19.69
22.69
24.48
25.31
25.76
26.47
27.90
30.07
32.54
34.65
35.86
35.93
35.07
33.71
32.28
30.92
29.43
27.44
24.58
20.76
16.21
11.38
6.76
2.68
-0.82
-3.92
-6.95
-10.24
-14.04
-18.55
-23.84
-29.84
-36.17
-42.03
-46.33
-47.96
-46.18
-40.92
-32.92
-23.43
-13.81
-5.07
2.30
8.25
12.95
16.47
18.82
20.02
20.30
20.13
20.02
20.39
21.28
22.43
23.40
23.82
23.56
22.79
21.76
20.71
19.64
18.33
16.45
13.75
10.22
6.11
1.85
-2.10
-5.49
-8.27
-10.66
-13.05
-15.90
-19.63
-24.47
-30.30
-36.53
-42.16
-45.96
-46.85
-44.29
-38.44
-30.19
-20.78
-11.41
-2.94
4.25
10.11
14.75
18.25
20.64
21.95
22.33
22.11
21.76
21.69
22.09
22.90
23.77
24.35
24.34
23.74
22.75
21.65
20.59
19.45
17.87
15.45
11.94
7.43
2.33
-2.74
-7.25
-10.94
-13.91
-16.55
-19.43
-23.06
-27.77
-33.65
-40.43
-47.49
-53.89
-58.49
-60.25
-58.51
-53.22
-45.08
-35.27
-25.19
-15.95
-8.16
-1.86
3.25
7.47
10.95
13.62
15.38
16.28
16.64
16.99
17.81
19.32
21.34
23.34
24.76
25.19
24.57
23.16
21.35
19.42
17.49
15.43
13.00
9.97
6.26
2.00
-2.46
-6.71
-10.38
-13.30
-15.57
-17.57
-19.78
-22.76
-26.93
-32.47
-39.21
-46.60
-53.66
-59.16
-61.83
-60.74
-55.61
-46.98
-36.06
-24.34
-13.20
-3.50
4.55
11.16
16.81
21.81
26.29
30.11
33.07
35.14
36.46
37.41
38.33
39.41
40.54
41.41
41.66
41.06
39.64
37.66
35.39
33.01
30.52
27.72
24.45
20.57
16.15
11.35
6.41
1.53
-3.15
-7.65
-12.05
-16.50
-21.17
-26.24
-31.86
-38.13
-44.96
-52.00
-58.63
-63.91
-66.79
-66.32
-61.96
-53.81
-42.56
-29.43
-15.78
-2.78
8.82
18.74
26.98
33.61
38.61
41.93
43.57
43.85
43.39
42.96
43.21
44.35
46.04
47.56
48.16
47.34
45.14
41.98
38.46
35.05
31.82
28.55
24.82
20.32
15.05
9.26
3.42
-2.07
-6.98
-11.36
-15.46
-19.61
-24.13
-29.25
-35.00
-41.34
-48.01
-54.60
-60.46
-64.70
-66.42
-64.80
-59.51
-50.75
-39.38
-26.63
-13.78
-1.84
8.57
17.24
24.13
29.28
32.73
34.62
35.29
35.21
34.94
34.84
35.04
35.40
35.63
35.46
34.77
33.58
31.99
30.08
27.81
25.09
21.79
17.86
13.39
8.58
3.70
-0.95
-5.16
-8.82
-12.04
-15.05
-18.21
-21.93
-26.54
-32.19
-38.70
-45.47
-51.53
-55.67
-56.80
-54.33
-48.35
-39.73
-29.80
-20.01
-11.42
-4.53
0.77
4.87
8.25
11.27
14.10
16.90
19.83
23.07
26.70
30.59
34.31
37.29
39.01
39.19
37.92
35.62
32.84
30.02
27.35
24.69
21.76
18.28
14.17
9.57
4.80
0.20
-4.01
-7.79
-11.32
-14.84
-18.64
-22.93
-27.78
-33.06
-38.36
-43.01
-46.13
-46.92
-44.81
-39.75
-32.28
-23.34
-14.03
-5.32
2.20
8.23
12.67
15.50
16.75
16.59
15.46
14.03
13.05
13.08
14.27
16.29
18.53
20.36
21.35
21.45
20.81
19.74
18.42
16.91
15.07
12.71
9.71
6.12
2.16
-1.85
-5.62
-8.98
-11.94
-14.69
-17.52
-20.71
-24.57
-29.22
-34.54
-40.12
-45.16
-48.66
-49.61
-47.37
-41.91
-33.87
-24.37
-14.70
-5.92
1.35
6.94
10.97
13.63
15.10
15.49
15.06
14.23
13.57
13.59
14.54
16.30
18.37
20.15
21.19
21.33
20.74
19.73
18.58
17.34
15.86
13.88
11.21
7.86
4.11
0.38
-2.94
-5.64
-7.85
-9.93
-12.35
-15.52
-19.67
-24.80
-30.65
-36.73
-42.27
-46.28
-47.82
-46.19
-41.31
-33.76
-24.66
-15.32
-6.78
0.34
5.88
9.92
12.60
14.05
14.43
14.00
13.24
12.68
12.76
13.67
15.27
17.16
18.85
19.95
20.31
20.01
19.24
18.16
16.75
14.85
12.29
9.05
5.34
1.57
-1.88
-4.81
-7.28
-9.58
-12.13
-15.30
-19.39
-24.45
-30.32
-36.40
-41.79
-45.33
-45.95
-43.06
-36.78
-28.01
-18.11
-8.55
-0.41
5.78
10.03
12.63
14.00
14.48
14.32
13.78
13.15
12.78
12.91
13.64
14.84
16.24
17.51
18.38
18.72
18.45
17.54
15.97
13.78
11.06
7.96
4.69
1.37
-1.91
-5.16
-8.48
-11.99
-15.85
-20.21
-25.16
-30.54
-35.90
-40.33
-42.77
-42.29
-38.48
-31.65
-22.78
-13.25
-4.34
3.08
8.71
12.67
15.27
16.84
17.57
17.61
17.15
16.47
15.92
15.78
16.24
17.25
18.59
19.92
20.85
21.10
20.48
18.95
16.56
13.50
9.97
6.19
2.35
-1.42
-5.06
-8.61
-12.19
-16.02
-20.33
-25.26
-30.67
-36.00
-40.29
-42.44
-41.53
-37.23
-29.98
-20.89
-11.40
-2.78
4.19
9.29
12.72
14.85
15.94
16.19
15.78
14.97
14.18
13.82
14.22
15.37
16.99
18.54
19.51
19.54
18.56
16.72
14.26
11.45
8.45
5.35
2.20
-0.98
-4.16
-7.36
-10.63
-14.13
-18.07
-22.67
-28.06
-34.08
-40.15
-45.32
-48.36
-48.24
-44.45
-37.29
-27.78
-17.35
-7.36
1.21
7.94
12.79
15.95
17.64
18.10
17.60
16.58
15.59
15.16
15.63
17.06
19.16
21.43
23.31
24.34
24.27
23.09
20.93
18.02
14.58
10.83
6.98
3.18
-0.47
-3.96
-7.36
-10.90
-14.88
-19.65
-25.43
-32.15
-39.25
-45.68
-50.05
-51.13
-48.23
-41.51
-32.02
-21.29
-10.81
-1.61
5.90
11.77
16.20
19.31
21.14
21.78
21.56
21.10
21.08
22.03
24.03
26.67
29.28
31.18
31.95
31.59
30.39
28.73
26.87
24.78
22.23
18.91
14.71
9.78
4.55
-0.43
-4.71
-8.16
-11.04
-13.88
-17.37
-22.09
-28.37
-36.05
-44.50
-52.57
-58.82
-61.83
-60.61
-54.97
-45.66
-34.13
-22.06
-10.84
-1.23
6.67
13.18
18.66
23.28
27.04
29.85
31.83
33.29
34.68
36.38
38.48
40.80
42.96
44.58
45.44
45.52
44.97
43.93
42.46
40.51
38.00
34.92
31.43
27.74
24.03
20.37
16.63
12.62
8.19
3.37
-1.61
-6.44
-10.90
-14.98
-18.95
-23.30
-28.56
-35.10
-43.00
-51.91
-61.02
-69.20
-75.08
-77.46
-75.56
-69.37
-59.68
-47.95
-35.80
-24.51
-14.64
-6.03
1.92
9.78
17.80
25.84
33.63
40.98
47.80
54.01
59.32
63.28
65.39
65.54
64.09
61.84
59.61
57.94
56.81
55.82
54.47
52.35
49.39
45.69
41.45
36.89
32.24
27.73
23.53
19.65
15.90
11.97
7.54
2.48
-3.06
-8.72
-14.09
-18.92
-23.25
-27.46
-32.10
-37.81
-45.00
-53.64
-63.21
-72.55
-80.12
-84.37
-84.12
-78.98
-69.56
-57.20
-43.62
-30.37
-18.37
-7.89
1.34
9.77
17.71
25.15
31.87
37.62
42.26
45.89
48.77
51.19
53.35
55.25
56.83
57.96
58.62
58.82
58.64
58.09
57.16
55.74
53.71
51.07
47.87
44.28
40.51
36.73
33.00
29.33
25.68
22.02
18.37
14.78
11.27
7.76
4.09
0.09
-4.37
-9.27
-14.44
-19.67
-24.76
-29.68
-34.59
-39.82
-45.78
-52.85
-61.09
-70.09
-78.92
-86.15
-90.30
-90.19
-85.42
-76.56
-64.92
-52.15
-39.67
-28.32
-18.27
-9.29
-1.07
6.46
13.17
18.79
23.25
26.76
29.80
32.89
36.36
40.23
44.16
47.75
50.65
52.74
54.11
55.00
55.60
55.97
56.02
55.55
54.39
52.49
49.96
47.10
44.25
41.66
39.45
37.53
35.63
33.53
31.07
28.33
25.53
23.00
21.01
19.69
18.96
18.53
17.98
16.84
14.70
11.36
6.95
2.02
-2.53
-5.59
-6.15
-3.61
2.11
10.53
20.83
32.06
43.41
54.21
63.95
72.23
78.69
83.05
85.22
85.29
83.63
80.74
77.12
73.17
69.08
64.88
60.50
55.90
51.13
46.33
41.63
37.08
32.65
28.27
23.88
19.52
15.23
11.02
6.82
2.51
-1.98
-6.65
-11.39
-16.08
-20.67
-25.23
-29.91
-34.81
-39.92
-45.04
-49.81
-53.92
-57.26
-60.13
-63.25
-67.49
-73.50
-81.40
-90.56
-99.94
-108.41
-115.15
-119.85
-122.49
-123.10
-121.49
-117.40
-110.62
-101.34
-90.18
-78.07
-65.96
-54.50
-44.03
-34.62
-26.26
-19.00
-12.97
-8.27
-4.85
-2.41
-0.44
1.65
4.25
7.40
10.80
13.95
16.44
18.06
18.92
19.21
19.13
18.68
17.75
16.18
14.00
11.41
8.78
6.48
4.66
3.27
2.00
0.46
-1.70
-4.60
-8.12
-12.00
-15.85
-19.42
-22.64
-25.72
-29.03
-33.02
-38.06
-44.33
-51.75
-59.84
-67.81
-74.51
-78.71
-79.37
-75.99
-68.83
-58.90
-47.69
-36.63
-26.75
-18.42
-11.46
-5.47
-0.09
4.83
9.27
13.23
16.85
20.37
24.00
27.82
31.64
35.13
37.96
39.92
41.01
41.37
41.24
40.76
39.99
38.84
37.09
34.54
31.09
26.86
22.23
17.73
13.88
10.91
8.73
6.95
5.11
2.89
0.24
-2.70
-5.67
-8.43
-10.82
-12.84
-14.62
-16.46
-18.75
-21.91
-26.18
-31.42
-36.97
-41.77
-44.55
-44.24
-40.43
-33.43
-24.28
-14.39
-5.14
2.52
8.25
12.24
14.93
16.81
18.15
19.02
19.44
19.51
19.42
19.46
19.85
20.63
21.64
22.59
23.19
23.31
23.03
22.52
21.93
21.29
20.43
19.11
17.12
14.48
11.43
8.38
5.67
3.43
1.53
-0.37
-2.66
-5.53
-8.95
-12.66
-16.31
-19.68
-22.74
-25.74
-29.07
-33.12
-38.19
-44.29
-51.15
-58.10
-64.20
-68.36
-69.59
-67.33
-61.68
-53.40
-43.65
-33.68
-24.44
-16.46
-9.86
-4.52
-0.31
2.87
5.17
6.78
8.02
9.34
11.11
13.55
16.59
19.88
22.82
24.86
25.63
25.13
23.70
21.87
20.06
18.44
16.86
14.99
12.56
9.54
6.14
2.79
-0.16
-2.59
-4.62
-6.58
-8.84
-11.65
-15.14
-19.31
-24.11
-29.42
-34.94
-40.10
-44.04
-45.81
-44.66
-40.33
-33.30
-24.57
-15.37
-6.79
0.56
6.51
11.14
14.58
16.83
17.85
17.73
16.85
15.88
15.56
16.44
18.61
21.66
24.88
27.54
29.08
29.35
28.51
26.90
24.88
22.69
20.34
17.76
14.83
11.45
7.74
3.82
-0.06
-3.76
-7.23
-10.56
-13.91
-17.44
-21.31
-25.65
-30.61
-36.13
-41.96
-47.43
-51.60
-53.38
-51.99
-47.26
-39.76
-30.63
-21.21
-12.62
-5.44
0.24
4.63
7.98
10.42
11.96
12.67
12.78
12.75
13.11
14.26
16.27
18.77
21.11
22.61
22.80
21.61
19.33
16.46
13.43
10.46
7.46
4.22
0.52
-3.66
-8.08
-12.36
-16.11
-19.09
-21.33
-23.07
-24.65
-26.41
-28.64
-31.61
-35.59
-40.90
-47.67
-55.65
-63.96
-71.22
-75.82
-76.56
-73.13
-66.33
-57.78
-49.32
-42.39
-37.67
-35.10
-34.14
-34.24
-34.99
-36.06
-37.06
-37.46
-36.61
-33.97
-29.32
-22.84
-15.11
-6.83
1.29
8.72
15.14
20.42
24.59
27.65
29.57
30.25
29.52
27.32
23.79
19.41
14.91
11.06
8.43
7.22
7.22
7.94
8.90
9.68
10.07
10.02
9.53
8.71
7.76
7.04
7.07
8.45
11.58
16.54
22.96
30.20
37.52
44.32
50.20
54.92
58.32
60.20
60.54
59.56
57.84
56.19
55.37
55.78
57.29
59.38
61.35
62.67
63.12
62.73
61.66
59.94
57.47
54.03
49.47
43.80
37.34
30.53
23.88
17.77
12.30
7.33
2.48
-2.66
-8.44
-14.97
-22.16
-29.63
-36.76
-42.74
-46.79
-48.27
-46.96
-43.10
-37.40
-30.79
-24.18
-18.22
-13.23
-9.21
-6.06
-3.62
-1.72
-0.19
1.28
3.04
5.46
8.72
12.70
17.01
21.03
24.18
26.06
26.54
25.75
23.95
21.40
18.24
14.57
10.40
5.80
0.90
-4.09
-8.97
-13.55
-17.76
-21.64
-25.36
-29.17
-33.38
-38.20
-43.65
-49.42
-54.85
-58.97
-60.75
-59.34
-54.45
-46.39
-36.10
-24.77
-13.57
-3.37
5.39
12.65
18.59
23.41
27.31
30.45
32.97
35.09
37.04
39.05
41.22
43.50
45.69
47.51
48.71
49.19
49.05
48.51
47.77
46.94
45.92
44.55
42.68
40.31
37.57
34.71
31.94
29.38
26.97
24.49
21.74
18.54
14.92
11.08
7.31
3.93
1.07
-1.37
-3.76
-6.62
-10.36
-15.14
-20.71
-26.50
-31.86
-36.31
-39.83
-42.83
-46.05
-50.24
-55.92
-63.18
-71.64
-80.54
-88.85
-95.45
-99.28
-99.55
-96.02
-89.06
-79.58
-68.77
-57.68
-46.77
-35.83
-24.16
-11.25
2.68
16.48
28.43
37.06
41.87
43.60
43.84
44.28
45.90
48.74
52.10
55.19
57.56
59.30
60.70
61.91
62.76
62.81
61.72
59.45
56.39
53.10
50.20
48.00
46.43
45.11
43.51
41.18
37.92
33.87
29.45
25.16
21.40
18.20
15.28
12.13
8.30
3.65
-1.61
-7.00
-12.03
-16.51
-20.56
-24.65
-29.34
-35.12
-42.25
-50.64
-59.70
-68.44
-75.51
-79.57
-79.66
-75.50
-67.63
-57.22
-45.66
-34.12
-23.28
-13.36
-4.28
4.08
11.73
18.54
24.39
29.22
33.19
36.55
39.67
42.77
45.92
48.96
51.67
53.83
55.37
56.37
56.91
57.04
56.64
55.57
53.73
51.17
48.18
45.12
42.36
40.05
38.16
36.44
34.59
32.35
29.63
26.52
23.22
19.96
16.89
13.95
10.95
7.57
3.61
-0.97
-5.99
-11.09
-15.95
-20.36
-24.32
-28.11
-32.21
-37.16
-43.34
-50.75
-58.83
-66.51
-72.36
-75.04
-73.70
-68.22
-59.30
-48.19
-36.30
-24.81
-14.43
-5.39
2.38
9.02
14.64
19.22
22.80
25.50
27.65
29.59
31.62
33.88
36.29
38.63
40.69
42.32
43.49
44.22
44.57
44.55
44.13
43.18
41.65
39.54
37.01
34.29
31.68
29.38
27.45
25.75
24.01
22.01
19.63
16.95
14.12
11.26
8.38
5.36
2.03
-1.71
-5.79
-10.03
-14.19
-18.13
-21.84
-25.48
-29.30
-33.60
-38.66
-44.64
-51.44
-58.57
-65.14
-69.86
-71.48
-69.17
-62.86
-53.35
-42.08
-30.63
-20.18
-11.34
-4.09
1.91
6.98
11.27
14.75
17.40
19.33
20.88
22.51
24.54
27.06
29.83
32.44
34.51
35.87
36.59
36.87
36.96
36.92
36.65
35.93
34.59
32.59
30.06
27.25
24.41
21.71
19.15
16.69
14.22
11.66
9.02
6.30
3.50
0.59
-2.51
-5.84
-9.38
-13.07
-16.77
-20.39
-23.89
-27.39
-31.17
-35.54
-40.86
-47.20
-54.27
-61.30
-67.09
-70.31
-69.92
-65.50
-57.46
-46.97
-35.51
-24.48
-14.79
-6.76
-0.24
5.10
9.45
12.85
15.26
16.80
17.80
18.84
20.40
22.72
25.59
28.51
30.92
32.46
33.14
33.21
33.02
32.73
32.32
31.53
30.14
28.06
25.42
22.48
19.55
16.85
14.46
12.33
10.32
8.24
5.90
3.15
-0.07
-3.65
-7.34
-10.86
-14.00
-16.76
-19.44
-22.50
-26.41
-31.49
-37.72
-44.79
-52.09
-58.74
-63.72
-66.05
-64.98
-60.34
-52.61
-42.82
-32.30
-22.26
-13.42
-6.03
0.02
4.98
8.95
11.94
13.99
15.28
16.20
17.26
18.84
21.06
23.74
26.50
28.92
30.74
31.92
32.52
32.68
32.48
31.91
30.92
29.46
27.47
24.98
22.12
19.07
16.07
13.30
10.81
8.50
6.05
3.21
-0.16
-3.92
-7.81
-11.50
-14.84
-17.93
-21.01
-24.47
-28.66
-33.85
-40.13
-47.29
-54.71
-61.34
-65.91
-67.25
-64.69
-58.36
-49.10
-38.27
-27.24
-17.08
-8.40
-1.35
4.19
8.44
11.62
13.92
15.56
16.83
18.06
19.57
21.57
24.06
26.77
29.30
31.24
32.35
32.67
32.42
31.87
31.15
30.17
28.68
26.48
23.60
20.33
17.13
14.36
12.13
10.21
8.22
5.82
2.90
-0.40
-3.79
-7.07
-10.23
-13.40
-16.83
-20.73
-25.28
-30.62
-36.80
-43.66
-50.64
-56.70
-60.51
-60.83
-57.06
-49.52
-39.38
-28.29
-17.75
-8.75
-1.55
4.08
8.56
12.15
14.92
16.79
17.73
17.95
17.86
17.93
18.55
19.80
21.50
23.27
24.77
25.78
26.26
26.29
25.96
25.27
24.13
22.45
20.20
17.47
14.34
10.96
7.43
3.89
0.46
-2.78
-5.76
-8.54
-11.29
-14.29
-17.85
-22.23
-27.54
-33.59
-39.86
-45.46
-49.28
-50.31
-47.89
-42.08
-33.60
-23.72
-13.76
-4.79
2.70
8.67
13.33
16.90
19.41
20.81
21.15
20.70
20.00
19.72
20.39
22.17
24.81
27.69
30.13
31.55
31.70
30.63
28.64
26.09
23.23
20.14
16.79
13.13
9.19
5.13
1.14
-2.63
-6.18
-9.64
-13.15
-16.85
-20.80
-25.09
-29.88
-35.44
-41.98
-49.45
-57.33
-64.55
-69.76
-71.70
-69.67
-63.76
-54.87
-44.31
-33.40
-23.03
-13.59
-5.03
2.80
9.94
16.20
21.30
25.02
27.48
29.15
30.72
32.85
35.86
39.56
43.36
46.50
48.40
48.86
48.10
46.58
44.65
42.43
39.68
36.05
31.27
25.38
18.76
12.04
5.88
0.72
-3.42
-6.99
-10.69
-15.30
-21.41
-29.23
-38.50
-48.48
-57.92
-65.20
-68.63
-66.94
-59.86
-48.38
-34.54
-20.73
-8.87
0.25
6.91
12.00
16.36
20.30
23.68
26.21
27.87
29.05
30.32
32.14
34.49
36.91
38.70
39.32
38.60
36.85
34.73
32.82
31.39
30.16
28.52
25.77
21.57
16.12
10.08
4.34
-0.52
-4.34
-7.53
-10.80
-14.91
-20.37
-27.28
-35.22
-43.36
-50.48
-55.27
-56.58
-53.81
-47.12
-37.44
-26.18
-14.82
-4.46
4.40
11.71
17.68
22.46
26.02
28.26
29.27
29.43
29.37
29.72
30.81
32.48
34.24
35.45
35.72
35.02
33.64
31.95
30.20
28.30
25.96
22.80
18.68
13.73
8.42
3.33
-1.08
-4.69
-7.77
-10.93
-14.82
-19.95
-26.43
-33.93
-41.67
-48.59
-53.50
-55.36
-53.52
-47.89
-39.08
-28.22
-16.64
-5.51
4.46
12.98
20.07
25.74
29.89
32.39
33.27
32.91
32.01
31.36
31.51
32.56
34.18
35.74
36.73
36.93
36.53
35.99
35.81
36.30
37.43
38.90
40.33
41.44
42.31
43.32
45.04
47.88
51.94
56.81
61.75
65.96
68.84
70.23
70.35
69.75
69.12
69.12
70.25
72.77
76.60
81.26
85.85
89.18
90.05
87.67
81.88
73.21
62.68
51.35
39.93
28.63
17.27
5.51
-6.74
-19.15
-30.99
-41.33
-49.39
-54.72
-57.27
-57.30
-55.20
-51.32
-46.09
-40.09
-34.25
-29.68
-27.46
-28.06
-31.17
-35.66
-40.08
-43.31
-44.94
-45.45
-45.79
-46.85
-49.09
-52.45
-56.58
-61.20
-66.20
-71.56
-77.04
-82.01
-85.53
-86.67
-84.98
-80.71
-74.75
-68.25
-62.11
-56.82
-52.41
-48.71
-45.59
-43.04
-41.05
-39.48
-37.91
-35.80
-32.57
-28.00
-22.19
-15.62
-8.95
-2.79
2.44
6.51
9.32
10.82
10.98
9.84
7.54
4.44
1.03
-2.15
-4.73
-6.61
-7.97
-9.22
-10.86
-13.39
-17.16
-22.27
-28.43
-34.90
-40.61
-44.33
-45.09
-42.40
-36.50
-28.18
-18.55
-8.74
0.41
8.32
14.67
19.25
22.02
23.13
23.02
22.36
21.88
22.06
23.04
24.51
25.97
26.99
27.36
27.14
26.48
25.48
24.09
22.11
19.38
15.86
11.72
7.20
2.60
-1.88
-6.20
-10.41
-14.69
-19.34
-24.71
-31.11
-38.56
-46.61
-54.28
-60.20
-63.01
-61.77
-56.37
-47.50
-36.50
-24.83
-13.71
-3.90
4.36
11.10
16.48
20.61
23.60
25.59
26.86
27.75
28.64
29.73
30.99
32.18
32.94
33.00
32.28
30.89
28.99
26.68
23.96
20.73
16.93
12.64
8.04
3.39
-1.07
-5.25
-9.23
-13.21
-17.47
-22.35
-28.07
-34.58
-41.42
-47.69
-52.15
-53.61
-51.28
-45.10
-35.83
-24.78
-13.43
-2.96
5.99
13.27
19.04
23.49
26.68
28.67
29.56
29.69
29.54
29.59
30.09
30.99
31.95
32.60
32.67
32.14
31.08
29.56
27.59
25.00
21.65
17.51
12.77
7.79
2.99
-1.36
-5.24
-8.90
-12.76
-17.28
-22.74
-29.18
-36.27
-43.28
-49.12
-52.57
-52.61
-48.76
-41.27
-31.18
-19.93
-8.95
0.72
8.65
14.85
19.56
23.01
25.34
26.67
27.16
27.13
26.90
26.80
27.00
27.50
28.14
28.69
28.91
28.57
27.56
25.86
23.48
20.54
17.11
13.27
9.15
4.91
0.73
-3.29
-7.19
-11.22
-15.78
-21.21
-27.61
-34.61
-41.36
-46.63
-49.16
-48.07
-43.13
-34.93
-24.68
-13.83
-3.70
4.85
11.52
16.44
19.87
22.09
23.29
23.63
23.37
22.82
22.40
22.43
23.02
24.05
25.15
25.88
25.85
24.87
23.02
20.50
17.60
14.49
11.21
7.71
3.86
-0.33
-4.79
-9.35
-13.94
-18.62
-23.57
-28.92
-34.52
-39.76
-43.61
-44.98
-43.04
-37.72
-29.69
-20.20
-10.61
-2.00
5.12
10.70
14.90
17.96
19.95
20.93
21.05
20.62
20.06
19.79
20.02
20.70
21.60
22.34
22.68
22.45
21.60
20.13
17.98
15.15
11.70
7.83
3.83
0.00
-3.52
-6.78
-10.00
-13.47
-17.47
-22.16
-27.55
-33.38
-39.09
-43.80
-46.48
-46.21
-42.55
-35.75
-26.74
-16.81
-7.27
0.94
7.37
12.02
15.12
16.98
17.92
18.23
18.25
18.28
18.64
19.43
20.56
21.71
22.46
22.52
21.79
20.48
18.97
17.54
16.25
14.84
12.93
10.19
6.63
2.58
-1.48
-5.15
-8.31
-11.18
-14.15
-17.64
-21.97
-27.17
-32.99
-38.78
-43.59
-46.32
-46.08
-42.47
-35.87
-27.25
-17.92
-9.08
-1.48
4.60
9.23
12.59
14.81
16.03
16.43
16.35
16.25
16.56
17.49
18.98
20.72
22.28
23.27
23.53
23.07
22.07
20.72
19.05
17.01
14.51
11.51
8.10
4.49
0.91
-2.50
-5.69
-8.74
-11.80
-14.99
-18.51
-22.54
-27.18
-32.34
-37.59
-42.14
-45.06
-45.50
-43.06
-37.94
-30.82
-22.63
-14.29
-6.47
0.43
6.14
10.55
13.57
15.26
15.85
15.70
15.29
15.08
15.39
16.40
18.04
20.06
22.03
23.50
24.08
23.56
22.04
19.81
17.30
14.84
12.56
10.34
7.92
5.08
1.81
-1.68
-5.11
-8.28
-11.20
-14.09
-17.14
-20.45
-23.96
-27.57
-31.29
-35.17
-39.14
-42.76
-45.19
-45.41
-42.67
-36.93
-28.92
-19.91
-11.17
-3.57
2.66
7.68
11.82
15.22
17.79
19.33
19.83
19.52
18.95
18.76
19.37
20.87
22.88
24.79
26.07
26.43
25.97
24.98
23.75
22.39
20.82
18.84
16.34
13.32
9.97
6.51
3.10
-0.11
-3.10
-5.86
-8.41
-10.88
-13.46
-16.44
-20.12
-24.69
-30.09
-35.93
-41.47
-45.70
-47.69
-46.78
-42.87
-36.43
-28.31
-19.55
-10.98
-3.23
3.41
8.79
12.86
15.60
17.12
17.66
17.61
17.47
17.67
18.52
20.03
22.04
24.20
26.12
27.44
27.94
27.55
26.33
24.41
21.97
19.22
16.27
13.24
10.20
7.15
4.13
1.14
-1.78
-4.61
-7.40
-10.25
-13.29
-16.62
-20.31
-24.34
-28.74
-33.49
-38.54
-43.56
-47.95
-50.82
-51.26
-48.67
-43.07
-35.13
-25.97
-16.79
-8.49
-1.51
4.13
8.60
12.02
14.42
15.75
16.15
15.93
15.64
15.82
16.79
18.56
20.75
22.86
24.45
25.27
25.31
24.69
23.57
22.04
20.16
17.97
15.55
13.02
10.46
7.89
5.29
2.60
-0.18
-3.01
-5.81
-8.54
-11.23
-13.99
-17.00
-20.43
-24.48
-29.25
-34.67
-40.43
-45.86
-50.03
-51.96
-50.94
-46.76
-39.89
-31.29
-22.07
-13.23
-5.40
1.14
6.34
10.24
12.97
14.74
15.87
16.80
17.86
19.27
21.04
22.98
24.88
26.57
27.96
29.01
29.67
29.78
29.22
27.86
25.74
23.05
20.10
17.23
14.61
12.28
10.07
7.77
5.20
2.31
-0.78
-3.89
-6.91
-9.79
-12.60
-15.53
-18.81
-22.66
-27.30
-32.78
-38.85
-44.87
-49.81
-52.48
-51.96
-47.86
-40.59
-31.17
-20.95
-11.16
-2.62
4.36
9.83
14.00
17.11
19.31
20.78
21.77
22.61
23.69
25.27
27.41
29.91
32.43
34.54
35.94
36.48
36.22
35.31
33.90
32.09
29.94
27.50
24.85
22.13
19.43
16.77
14.06
11.13
7.88
4.30
0.55
-3.13
-6.55
-9.66
-12.63
-15.79
-19.48
-23.95
-29.26
-35.26
-41.45
-47.05
-51.14
-52.74
-51.20
-46.35
-38.68
-29.19
-19.11
-9.57
-1.30
5.44
10.74
14.84
18.01
20.44
22.32
23.88
25.37
27.04
28.98
31.09
33.06
34.53
35.27
35.23
34.64
33.78
32.87
31.95
30.88
29.45
27.54
25.19
22.58
19.97
17.53
15.25
13.00
10.52
7.61
4.23
0.48
-3.35
-6.95
-10.12
-12.90
-15.54
-18.50
-22.21
-26.98
-32.79
-39.28
-45.72
-51.15
-54.51
-54.96
-52.12
-46.23
-38.07
-28.74
-19.35
-10.65
-3.00
3.62
9.33
14.21
18.24
21.36
23.61
25.19
26.41
27.59
28.97
30.56
32.22
33.71
34.80
35.40
35.55
35.41
35.11
34.63
33.85
32.53
30.56
27.97
25.00
22.01
19.33
17.04
15.06
13.10
10.84
8.05
4.71
0.94
-2.99
-6.76
-10.14
-13.09
-15.78
-18.58
-21.94
-26.27
-31.75
-38.17
-44.91
-50.93
-55.03
-56.15
-53.77
-48.08
-39.95
-30.67
-21.47
-13.16
-6.04
0.02
5.30
9.98
14.03
17.29
19.66
21.26
22.43
23.63
25.22
27.33
29.78
32.17
34.12
35.38
35.92
35.92
35.56
34.98
34.15
32.93
31.18
28.82
25.94
22.76
19.59
16.73
14.32
12.32
10.49
8.50
6.06
3.03
-0.49
-4.27
-8.05
-11.69
-15.19
-18.69
-22.40
-26.51
-31.16
-36.37
-42.00
-47.64
-52.59
-55.99
-56.96
-54.93
-49.90
-42.43
-33.52
-24.26
-15.54
-7.85
-1.32
4.17
8.81
12.70
15.90
18.44
20.44
22.10
23.70
25.45
27.44
29.60
31.66
33.34
34.40
34.79
34.61
34.04
33.25
32.25
30.92
29.07
26.66
23.78
20.71
17.81
15.30
13.23
11.40
9.51
7.26
4.52
1.32
-2.16
-5.72
-9.17
-12.40
-15.43
-18.32
-21.21
-24.29
-27.77
-31.93
-36.96
-42.79
-48.96
-54.56
-58.39
-59.35
-56.82
-50.95
-42.62
-33.14
-23.78
-15.36
-8.18
-2.11
3.11
7.65
11.57
14.80
17.36
19.38
21.12
22.91
24.92
27.19
29.53
31.66
33.25
34.14
34.35
34.06
33.48
32.78
31.93
30.76
29.05
26.70
23.79
20.61
17.55
14.89
12.78
11.08
9.53
7.84
5.81
3.32
0.38
-2.95
-6.50
-10.10
-13.57
-16.83
-19.87
-22.83
-25.95
-29.49
-33.70
-38.72
-44.40
-50.29
-55.51
-58.94
-59.55
-56.78
-50.78
-42.44
-33.01
-23.74
-15.39
-8.24
-2.16
3.10
7.64
11.39
14.26
16.25
17.62
18.82
20.28
22.29
24.81
27.54
30.00
31.78
32.67
32.77
32.37
31.79
31.18
30.49
29.53
28.09
26.15
23.83
21.38
19.03
16.87
14.85
12.85
10.78
8.59
6.27
3.80
1.13
-1.82
-5.03
-8.44
-11.86
-15.15
-18.26
-21.32
-24.58
-28.35
-32.86
-38.16
-44.07
-50.13
-55.55
-59.38
-60.64
-58.69
-53.47
-45.58
-36.21
-26.65
-17.93
-10.59
-4.64
0.19
4.18
7.44
10.00
11.90
13.33
14.60
16.07
17.89
20.05
22.30
24.38
26.05
27.25
28.05
28.49
28.60
28.34
27.62
26.40
24.67
22.55
20.21
17.87
15.67
13.70
11.87
10.02
7.89
5.31
2.23
-1.24
-4.83
-8.30
-11.47
-14.36
-17.16
-20.15
-23.63
-27.82
-32.81
-38.44
-44.21
-49.33
-52.76
-53.54
-51.08
-45.46
-37.44
-28.22
-19.05
-10.84
-3.96
1.64
6.21
9.92
12.80
14.84
16.14
16.97
17.78
18.98
20.74
22.94
25.19
27.08
28.31
28.82
28.79
28.45
28.01
27.52
26.78
25.58
23.71
21.14
18.12
15.05
12.34
10.20
8.50
6.81
4.62
1.57
-2.34
-6.75
-11.15
-15.10
-18.50
-21.57
-24.72
-28.39
-32.89
-38.34
-44.66
-51.49
-58.11
-63.47
-66.36
-65.81
-61.48
-53.87
-44.17
-33.83
-24.08
-15.52
-8.18
-1.76
3.98
9.05
13.26
16.49
18.82
20.64
22.45
24.62
27.16
29.82
32.18
33.91
34.95
35.44
35.65
35.74
35.70
35.34
34.40
32.68
30.18
27.12
23.84
20.74
18.09
15.90
13.98
11.95
9.44
6.24
2.37
-1.95
-6.38
-10.59
-14.38
-17.73
-20.82
-24.04
-27.88
-32.80
-39.01
-46.26
-53.73
-60.20
-64.26
-64.83
-61.40
-54.32
-44.57
-33.56
-22.71
-12.99
-4.85
1.77
7.23
11.89
15.93
19.35
22.09
24.24
26.02
27.81
29.86
32.18
34.54
36.53
37.84
38.35
38.22
37.70
36.98
36.07
34.77
32.88
30.26
27.06
23.60
20.25
17.28
14.67
12.23
9.62
6.61
3.18
-0.52
-4.25
-7.87
-11.41
-15.05
-19.03
-23.63
-28.98
-35.16
-41.98
-48.92
-55.19
-59.67
-61.30
-59.36
-53.78
-45.26
-35.04
-24.49
-14.71
-6.29
0.68
6.39
11.01
14.56
17.02
18.38
18.95
19.22
19.82
21.22
23.48
26.29
29.00
30.99
31.85
31.53
30.30
28.52
26.53
24.45
22.25
19.81
16.98
13.75
10.15
6.31
2.36
-1.57
-5.39
-9.08
-12.64
-16.22
-19.96
-24.06
-28.70
-34.05
-40.18
-47.00
-54.11
-60.75
-65.84
-68.25
-67.18
-62.51
-54.97
-45.97
-37.13
-29.73
-24.32
-20.75
-18.42
-16.65
-15.03
-13.45
-11.91
-10.42
-8.76
-6.61
-3.70
0.04
4.44
9.16
13.82
18.20
22.28
26.12
29.83
33.36
36.48
38.89
40.46
41.38
42.28
43.91
46.72
50.48
54.16
56.41
56.24
53.59
49.34
44.79
40.85
37.49
33.76
28.35
20.34
9.68
-2.77
-15.57
-27.18
-36.39
-42.47
-45.20
-44.80
-41.90
-37.28
-31.68
-25.58
-19.11
-12.25
-4.99
2.47
9.81
16.70
22.96
28.59
33.64
38.02
41.57
44.11
45.66
46.56
47.35
48.49
50.07
51.74
52.82
52.65
50.89
47.63
43.24
38.19
32.85
27.43
22.06
16.96
12.32
8.36
5.11
2.44
-0.04
-2.78
-6.22
-10.63
-15.97
-21.85
-27.53
-32.10
-34.68
-34.73
-32.17
-27.40
-21.12
-14.05
-6.80
0.28
6.94
13.02
18.36
22.80
26.26
28.81
30.65
32.00
33.07
33.94
34.61
35.00
35.08
34.87
34.41
33.68
32.63
31.15
29.18
26.76
24.06
21.28
18.59
16.03
13.50
10.82
7.84
4.54
1.07
-2.39
-5.66
-8.77
-11.88
-15.29
-19.30
-24.05
-29.57
-35.67
-42.03
-48.19
-53.52
-57.23
-58.56
-56.97
-52.42
-45.48
-37.16
-28.61
-20.72
-13.94
-8.25
-3.38
0.91
4.69
7.90
10.49
12.53
14.20
15.76
17.36
18.97
20.46
21.64
22.40
22.75
22.78
22.58
22.15
21.37
20.11
18.34
16.11
13.65
11.23
9.02
7.05
5.20
3.29
1.14
-1.29
-3.95
-6.71
-9.44
-12.07
-14.64
-17.23
-20.01
-23.16
-26.89
-31.34
-36.54
-42.22
-47.74
-52.16
-54.44
-53.83
-50.10
-43.69
-35.60
-27.00
-18.90
-11.85
-5.95
-1.01
3.20
6.80
9.76
12.08
13.82
15.19
16.50
18.04
19.91
22.02
24.15
26.03
27.46
28.33
28.63
28.39
27.61
26.29
24.44
22.11
19.45
16.64
13.91
11.35
8.96
6.55
3.93
0.92
-2.50
-6.21
-10.01
-13.72
-17.36
-21.10
-25.27
-30.22
-36.15
-43.00
-50.36
-57.48
-63.37
-67.05
-67.76
-65.24
-59.80
-52.26
-43.70
-35.11
-27.17
-20.11
-13.82
-8.04
-2.63
2.39
6.84
10.57
13.62
16.21
18.67
21.27
24.01
26.71
29.05
30.85
32.15
33.15
34.11
35.10
35.98
36.40
35.98
34.52
32.03
28.82
25.32
22.01
19.21
16.99
15.18
13.43
11.36
8.73
5.54
2.02
-1.48
-4.72
-7.64
-10.44
-13.44
-17.03
-21.49
-26.87
-33.05
-39.62
-45.92
-51.08
-54.20
-54.54
-51.79
-46.23
-38.67
-30.24
-21.97
-14.53
-8.06
-2.31
3.09
8.42
13.62
18.46
22.65
26.06
28.77
31.10
33.37
35.81
38.48
41.25
43.87
46.08
47.66
48.50
48.60
48.06
46.97
45.41
43.38
40.87
37.95
34.75
31.51
28.42
25.55
22.79
19.90
16.63
12.85
8.60
4.05
-0.59
-5.15
-9.52
-13.64
-17.56
-21.38
-25.34
-29.77
-35.06
-41.46
-48.94
-57.02
-64.79
-71.08
-74.80
-75.27
-72.44
-66.88
-59.61
-51.72
-44.07
-37.15
-31.04
-25.55
-20.48
-15.66
-11.06
-6.71
-2.65
1.16
4.80
8.40
12.07
15.82
19.54
23.10
26.29
28.97
31.01
32.41
33.20
33.49
33.38
32.94
32.17
31.03
29.51
27.61
25.42
23.06
20.67
18.34
16.09
13.85
11.46
8.73
5.45
1.47
-3.36
-9.07
-15.56
-22.50
-29.32
-35.17
-39.12
-40.34
-38.47
-33.77
-27.09
-19.63
-12.51
-6.43
-1.55
2.42
5.86
9.06
12.01
14.57
16.58
18.06
19.25
20.42
21.77
23.30
24.83
26.11
26.89
27.08
26.70
25.83
24.53
22.86
20.87
18.62
16.23
13.76
11.28
8.79
6.27
3.72
1.15
-1.38
-3.86
-6.33
-8.92
-11.72
-14.80
-18.16
-21.77
-25.72
-30.15
-35.18
-40.70
-46.15
-50.62
-53.00
-52.50
-48.86
-42.60
-34.76
-26.50
-18.78
-12.05
-6.35
-1.50
2.69
6.28
9.25
11.60
13.46
15.08
16.73
18.50
20.32
22.01
23.40
24.44
25.23
25.89
26.48
26.89
26.93
26.35
24.99
22.90
20.26
17.36
14.52
11.92
9.58
7.38
5.11
2.60
-0.22
-3.26
-6.37
-9.45
-12.50
-15.65
-19.09
-22.98
-27.40
-32.23
-37.13
-41.52
-44.66
-45.78
-44.36
-40.28
-33.99
-26.35
-18.36
-10.90
-4.45
0.83
5.01
8.23
10.58
12.18
13.19
13.88
14.57
15.50
16.79
18.36
19.96
21.32
22.27
22.73
22.80
22.59
22.20
21.62
20.75
19.44
17.59
15.24
12.56
9.78
7.13
4.69
2.43
0.20
-2.17
-4.77
-7.59
-10.54
-13.53
-16.54
-19.67
-23.17
-27.27
-32.10
-37.48
-42.88
-47.48
-50.31
-50.58
-47.87
-42.34
-34.69
-26.02
-17.45
-9.82
-3.56
1.34
5.11
8.03
10.23
11.75
12.61
13.02
13.31
13.88
15.03
16.78
18.86
20.83
22.31
23.07
23.12
22.61
21.71
20.49
18.91
16.95
14.63
12.05
9.39
6.76
4.19
1.59
-1.09
-3.90
-6.76
-9.59
-12.34
-15.11
-18.06
-21.43
-25.43
-30.13
-35.44
-41.02
-46.34
-50.61
-53.00
-52.80
-49.63
-43.74
-35.86
-27.09
-18.50
-10.79
-4.27
1.14
5.59
9.17
11.90
13.80
15.11
16.24
17.62
19.54
21.95
24.54
26.89
28.69
29.84
30.41
30.49
30.14
29.34
28.10
26.45
24.54
22.52
20.47
18.40
16.19
13.72
10.90
7.73
4.37
1.02
-2.10
-4.88
-7.39
-9.90
-12.78
-16.45
-21.17
-26.92
-33.25
-39.32
-44.05
-46.42
-45.78
-42.07
-35.86
-28.19
-20.17
-12.67
-6.17
-0.74
3.71
7.31
10.09
12.11
13.47
14.42
15.24
16.17
17.36
18.77
20.28
21.74
23.03
24.08
24.80
25.14
25.06
24.58
23.75
22.69
21.54
20.44
19.45
18.61
17.79
16.79
15.39
13.44
10.94
8.08
5.17
2.50
0.24
-1.70
-3.64
-6.07
-9.43
-13.97
-19.57
-25.59
-31.07
-34.95
-36.38
-35.02
-31.17
-25.57
-19.13
-12.67
-6.67
-1.34
3.30
7.29
10.60
13.21
15.14
16.53
17.67
18.84
20.31
22.17
24.36
26.63
28.70
30.24
31.06
31.06
30.29
28.87
26.97
24.70
22.10
19.17
15.95
12.59
9.38
6.77
5.13
4.62
5.06
5.85
6.17
5.20
2.32
-2.66
-9.49
-17.59
-26.11
-34.16
-40.84
-45.45
-47.46
-46.67
-43.18
-37.44
-30.20
-22.33
-14.63
-7.68
-1.75
3.18
7.28
10.67
13.43
15.52
16.96
17.81
18.35
18.86
19.69
21.00
22.72
24.62
26.29
27.34
27.42
26.45
24.54
22.08
19.57
17.49
16.16
15.62
15.62
15.71
15.41
14.35
12.37
9.55
6.16
2.52
-1.10
-4.49
-7.60
-10.50
-13.40
-16.47
-19.82
-23.27
-26.35
-28.38
-28.67
-26.80
-22.79
-17.10
-10.47
-3.61
2.96
8.99
14.35
18.92
22.45
24.65
25.35
24.62
22.87
20.71
18.84
17.80
17.84
18.90
20.66
22.70
24.55
25.87
26.41
26.05
24.73
22.46
19.31
15.48
11.37
7.48
4.32
2.13
0.76
-0.33
-1.86
-4.43
-8.19
-12.86
-17.91
-22.87
-27.50
-31.77
-35.67
-38.88
-40.87
-41.01
-38.96
-34.94
-29.62
-23.98
-18.82
-14.57
-11.28
-8.73
-6.70
-5.12
-4.00
-3.34
-3.04
-2.91
-2.71
-2.29
-1.63
-0.78
0.15
1.09
2.09
3.21
4.56
6.07
7.53
8.56
8.70
7.58
5.00
1.10
-3.70
-8.83
-13.66
-17.71
-20.71
-22.75
-24.18
-25.64
-27.84
-31.33
-36.26
-42.15
-47.90
-52.10
-53.48
-51.33
-45.80
-37.74
-28.49
-19.38
-11.41
-5.10
-0.58
2.27
3.63
3.74
2.93
1.72
0.76
0.72
2.05
4.82
8.58
12.62
16.10
18.48
19.68
20.06
20.20
20.64
21.56
22.67
23.42
23.14
21.51
18.60
14.85
10.88
7.10
3.62
0.21
-3.58
-8.16
-13.75
-20.28
-27.38
-34.38
-40.46
-44.65
-46.16
-44.54
-39.94
-33.07
-25.00
-16.85
-9.44
-3.24
1.67
5.41
8.18
10.19
11.72
13.13
14.85
17.22
20.32
23.89
27.39
30.17
31.74
31.90
30.83
28.90
26.51
23.87
21.02
17.81
14.07
9.78
5.08
0.26
-4.35
-8.52
-12.19
-15.43
-18.51
-21.75
-25.48
-30.02
-35.50
-41.84
-48.60
-55.00
-59.95
-62.39
-61.56
-57.33
-50.23
-41.36
-31.92
-22.88
-14.77
-7.64
-1.35
4.27
9.21
13.32
16.53
18.92
20.80
22.56
24.55
26.92
29.54
32.11
34.27
35.75
36.42
36.36
35.71
34.61
33.17
31.40
29.33
26.95
24.25
21.19
17.76
14.01
10.02
5.93
1.89
-1.97
-5.60
-9.00
-12.35
-15.96
-20.20
-25.49
-32.00
-39.50
-47.21
-53.91
-58.21
-59.04
-56.01
-49.53
-40.72
-30.94
-21.38
-12.72
-5.12
1.66
7.90
13.73
19.03
23.58
27.21
29.96
32.13
34.11
36.19
38.43
40.64
42.56
43.98
44.90
45.42
45.63
45.52
44.91
43.54
41.22
37.97
34.09
30.04
26.28
23.11
20.55
18.36
16.11
13.39
9.92
5.68
0.93
-3.93
-8.52
-12.62
-16.32
-19.97
-24.06
-29.06
-35.19
-42.38
-50.06
-57.31
-62.99
-66.07
-65.84
-62.15
-55.47
-46.70
-36.89
-26.99
-17.64
-9.12
-1.47
5.35
11.40
16.69
21.20
24.97
28.12
30.84
33.39
35.97
38.66
41.42
44.05
46.34
48.11
49.27
49.86
49.92
49.50
48.57
47.05
44.86
42.00
38.61
34.88
31.09
27.46
24.11
20.99
17.96
14.72
11.02
6.75
1.99
-2.98
-7.76
-12.06
-15.85
-19.36
-23.05
-27.40
-32.77
-39.33
-46.96
-55.29
-63.58
-70.81
-75.76
-77.34
-74.97
-68.80
-59.69
-48.99
-37.95
-27.37
-17.45
-7.91
1.76
11.89
22.39
32.60
41.37
47.49
50.13
49.36
46.15
42.15
38.93
37.43
37.64
38.79
39.93
40.51
40.51
40.32
40.20
40.05
39.37
37.60
34.55
30.53
26.27
22.54
19.78
17.93
16.49
14.83
12.43
9.12
5.06
0.63
-3.76
-7.80
-11.38
-14.57
-17.59
-20.74
-24.34
-28.65
-33.90
-40.13
-47.17
-54.45
-61.00
-65.55
-66.87
-64.18
-57.51
-47.76
-36.38
-24.92
-14.52
-5.67
1.70
7.91
13.22
17.71
21.31
24.05
26.15
28.01
30.04
32.49
35.27
38.06
40.44
42.11
42.97
43.11
42.71
41.93
40.88
39.63
38.23
36.68
34.89
32.73
30.10
26.99
23.62
20.29
17.29
14.75
12.53
10.30
7.71
4.57
0.87
-3.18
-7.36
-11.49
-15.50
-19.37
-23.16
-27.01
-31.15
-35.91
-41.53
-47.99
-54.77
-60.84
-64.93
-65.89
-63.11
-56.78
-47.78
-37.33
-26.67
-16.72
-7.99
-0.64
5.35
10.08
13.67
16.30
18.23
19.77
21.27
23.04
25.24
27.84
30.61
33.18
35.21
36.52
37.10
37.10
36.77
36.23
35.53
34.58
33.24
31.42
29.13
26.46
23.57
20.63
17.77
15.05
12.43
9.75
6.82
3.47
-0.38
-4.58
-8.88
-13.00
-16.80
-20.30
-23.73
-27.38
-31.51
-36.35
-41.97
-48.35
-55.26
-62.16
-68.16
-72.20
-73.30
-70.96
-65.33
-57.24
-47.82
-38.26
-29.38
-21.59
-14.96
-9.34
-4.61
-0.68
2.53
5.10
7.25
9.29
11.55
14.30
17.57
21.15
24.62
27.51
29.47
30.41
30.50
30.06
29.39
28.66
27.86
26.86
25.54
23.81
21.74
19.52
17.39
15.54
14.04
12.78
11.47
9.80
7.52
4.58
1.14
-2.46
-5.92
-9.00
-11.72
-14.25
-16.91
-20.06
-24.04
-29.10
-35.30
-42.33
-49.47
-55.56
-59.30
-59.59
-55.93
-48.63
-38.73
-27.64
-16.73
-6.96
1.22
7.80
13.01
17.05
20.07
22.17
23.49
24.31
25.07
26.17
27.84
30.05
32.47
34.65
36.22
37.04
37.22
37.01
36.59
36.00
35.08
33.58
31.30
28.17
24.40
20.33
16.43
13.07
10.39
8.28
6.37
4.19
1.39
-2.10
-6.08
-10.17
-14.02
-17.48
-20.70
-24.06
-28.05
-33.05
-39.21
-46.30
-53.71
-60.42
-65.20
-66.90
-64.77
-58.74
-49.55
-38.50
-27.11
-16.63
-7.82
-0.86
4.45
8.42
11.29
13.23
14.46
15.30
16.18
17.50
19.46
21.97
24.67
27.13
29.03
30.25
30.83
30.94
30.67
30.01
28.89
27.24
25.05
22.45
19.60
16.64
13.68
10.69
7.58
4.29
0.82
-2.75
-6.29
-9.70
-12.98
-16.26
-19.77
-23.86
-28.84
-34.90
-41.96
-49.48
-56.46
-61.57
-63.50
-61.42
-55.30
-46.00
-34.97
-23.80
-13.68
-5.18
1.66
7.14
11.51
14.88
17.28
18.82
19.79
20.64
21.83
23.64
26.03
28.68
31.19
33.21
34.58
35.33
35.53
35.25
34.42
32.94
30.74
27.92
24.70
21.41
18.30
15.48
12.83
10.11
7.02
3.37
-0.84
-5.39
-9.91
-14.07
-17.74
-21.10
-24.60
-28.85
-34.37
-41.36
-49.60
-58.33
-66.37
-72.32
-74.92
-73.38
-67.62
-58.44
-47.21
-35.57
-24.85
-15.84
-8.71
-3.18
1.18
4.74
7.74
10.36
12.85
15.55
18.78
22.74
27.38
32.36
37.16
41.28
44.33
46.24
47.16
47.31
46.84
45.73
43.89
41.25
37.92
34.23
30.60
27.36
24.55
21.90
19.01
15.52
11.32
6.59
1.66
-3.13
-7.64
-11.96
-16.40
-21.37
-27.27
-34.36
-42.62
-51.54
-60.06
-66.72
-70.00
-68.83
-63.03
-53.40
-41.49
-29.03
-17.45
-7.50
0.68
7.35
12.80
17.16
20.45
22.69
24.05
24.89
25.64
26.71
28.28
30.29
32.50
34.55
36.17
37.20
37.57
37.27
36.21
34.26
31.26
27.20
22.27
16.90
11.62
6.81
2.57
-1.33
-5.35
-9.89
-15.14
-20.92
-26.83
-32.37
-37.18
-41.10
-44.28
-47.10
-50.07
-53.71
-58.34
-63.86
-69.58
-74.34
-76.72
-75.53
-70.20
-61.03
-49.09
-35.84
-22.76
-10.87
-0.67
7.83
14.84
20.58
25.22
28.87
31.70
34.06
36.36
39.01
42.18
45.73
49.28
52.37
54.67
56.06
56.62
56.43
55.49
53.68
50.86
47.06
42.59
37.91
33.54
29.83
26.82
24.27
21.78
19.02
15.82
12.21
8.35
4.46
0.65
-3.09
-6.90
-11.01
-15.71
-21.30
-27.96
-35.52
-43.34
-50.18
-54.50
-54.87
-50.55
-41.84
-30.06
-17.08
-4.73
5.80
14.14
20.54
25.45
29.19
31.81
33.22
33.49
32.92
32.07
31.50
31.59
32.36
33.55
34.80
35.77
36.32
36.37
35.89
34.79
32.91
30.18
26.65
22.55
18.23
14.00
10.03
6.29
2.61
-1.19
-5.23
-9.51
-13.92
-18.34
-22.70
-27.08
-31.68
-36.81
-42.80
-49.84
-57.88
-66.40
-74.36
-80.37
-82.96
-81.10
-74.54
-64.02
-51.07
-37.50
-24.95
-14.43
-6.25
-0.23
3.95
6.56
7.69
7.43
6.05
4.09
2.23
1.02
0.63
0.63
0.28
-1.26
-4.47
-9.33
-15.34
-21.87
-28.41
-34.79
-41.11
-47.51
-53.86
-59.64
-64.10
-66.44
-66.26
-63.71
-59.44
-54.43
-49.66
-45.83
-43.32
-42.26
-42.42
-43.27
-43.89
-43.16
-40.01
-33.74
-24.30
-12.17
1.88
17.13
33.08
49.39
65.71
81.48
95.94
108.25
117.84
124.54
128.61
130.63
131.20
130.81
129.73
128.09
125.91
123.13
119.76
115.77
111.04
105.45
98.83
91.14
82.54
73.33
63.92
54.67
45.76
37.19
28.78
20.36
11.83
3.31
-4.98
-12.77
-19.97
-26.79
-33.61
-40.91
-49.03
-58.05
-67.69
-77.31
-85.93
-92.24
-94.77
-92.25
-83.98
-70.24
-52.39
-32.60
-13.33
3.28
15.96
24.59
30.18
34.63
40.16
48.64
60.93
76.51
93.64
109.95
123.27
132.26
136.52
136.34
132.23
124.61
113.80
100.30
84.99
69.07
53.74
39.79
27.43
16.30
5.78
-4.67
-15.28
-25.95
-36.30
-45.95
-54.63
-62.36
-69.46
-76.44
-83.79
-91.84
-100.60
-109.74
-118.58
-126.20
-131.54
-133.60
-131.69
-125.54
-115.45
-102.27
-87.13
-71.26
-55.72
-41.29
-28.48
-17.59
-8.73
-1.84
3.35
7.25
10.33
13.01
15.48
17.62
19.09
19.49
18.56
16.39
13.36
10.00
6.74
3.67
0.65
-2.58
-6.18
-9.99
-13.61
-16.53
-18.47
-19.55
-20.33
-21.57
-24.05
-28.25
-34.24
-41.71
-49.89
-57.71
-63.85
-66.93
-65.81
-59.93
-49.56
-35.72
-19.96
-3.83
11.54
25.57
38.16
49.31
58.85
66.34
71.37
73.80
74.04
72.98
71.72
71.15
71.62
72.94
74.52
75.70
76.00
75.22
73.39
70.70
67.36
63.46
58.99
53.88
48.04
41.46
34.27
26.77
19.31
12.20
5.61
-0.53
-6.40
-12.31
-18.58
-25.58
-33.62
-42.88
-53.08
-63.34
-72.13
-77.56
-77.93
-72.31
-60.91
-45.07
-26.85
-8.43
8.52
23.03
34.91
44.39
51.82
57.48
61.50
64.09
65.62
66.65
67.85
69.67
72.14
74.84
76.98
77.70
76.31
72.55
66.51
58.60
49.37
39.31
28.82
18.11
7.32
-3.50
-14.24
-24.69
-34.52
-43.36
-50.88
-56.93
-61.59
-65.22
-68.32
-71.49
-75.23
-79.89
-85.59
-92.10
-98.83
-104.78
-108.74
-109.51
-106.25
-98.82
-87.82
-74.44
-60.03
-45.77
-32.39
-20.24
-9.47
-0.27
7.12
12.43
15.58
16.84
16.76
16.03
15.24
14.65
14.26
13.86
13.21
12.14
10.64
8.77
6.64
4.37
2.05
-0.28
-2.66
-5.18
-7.94
-11.02
-14.39
-17.89
-21.33
-24.56
-27.58
-30.52
-33.63
-37.25
-41.66
-47.05
-53.30
-59.84
-65.59
-69.12
-69.01
-64.37
-55.22
-42.57
-28.09
-13.61
-0.52
10.47
19.29
26.21
31.45
35.14
37.31
38.15
38.09
37.82
37.99
39.01
40.82
43.00
44.93
46.03
45.95
44.65
42.34
39.38
36.10
32.69
29.15
25.32
20.99
16.07
10.68
5.11
-0.32
-5.44
-10.35
-15.31
-20.71
-26.80
-33.71
-41.38
-49.57
-57.84
-65.43
-71.23
-73.94
-72.38
-66.01
-55.21
-41.33
-26.29
-11.99
0.30
10.17
17.96
24.25
29.48
33.70
36.67
38.24
38.59
38.29
38.13
38.75
40.33
42.56
44.79
46.30
46.62
45.63
43.59
40.93
38.02
35.05
31.94
28.42
24.24
19.28
13.66
7.67
1.72
-3.85
-8.88
-13.43
-17.78
-22.33
-27.57
-33.92
-41.52
-50.18
-59.15
-67.24
-72.95
-74.87
-72.14
-64.74
-53.61
-40.33
-26.66
-14.04
-3.23
5.61
12.77
18.56
23.13
26.46
28.51
29.48
29.86
30.30
31.33
33.16
35.55
37.93
39.68
40.38
39.99
38.78
37.16
35.41
33.52
31.21
28.10
23.95
18.85
13.21
7.63
2.61
-1.65
-5.34
-8.93
-13.02
-18.09
-24.41
-31.96
-40.37
-48.89
-56.40
-61.50
-62.91
-59.80
-52.21
-41.10
-28.07
-14.88
-2.86
7.26
15.40
21.81
26.75
30.34
32.56
33.44
33.23
32.41
31.65
31.53
32.32
33.90
35.74
37.18
37.67
36.98
35.23
32.79
30.08
27.35
24.59
21.56
17.95
13.53
8.30
2.56
-3.21
-8.46
-12.86
-16.40
-19.38
-22.30
-25.70
-30.02
-35.55
-42.37
-50.26
-58.53
-66.02
-71.17
-72.52
-69.17
-61.19
-49.69
-36.40
-23.16
-11.28
-1.33
6.76
13.37
18.81
23.17
26.35
28.30
29.19
29.45
29.66
30.34
31.68
33.49
35.26
36.47
36.75
36.08
34.71
32.99
31.17
29.22
26.91
23.92
20.04
15.28
9.93
4.41
-0.86
-5.64
-9.88
-13.76
-17.58
-21.75
-26.65
-32.56
-39.52
-47.15
-54.56
-60.42
-63.29
-62.07
-56.40
-46.87
-34.84
-21.99
-9.82
0.70
9.23
15.86
20.80
24.28
26.44
27.49
27.77
27.76
27.99
28.78
30.19
31.92
33.47
34.33
34.23
33.25
31.74
30.12
28.60
27.05
25.07
22.16
18.06
12.91
7.24
1.69
-3.20
-7.34
-10.99
-14.69
-18.97
-24.23
-30.57
-37.80
-45.45
-52.66
-58.32
-61.19
-60.25
-55.16
-46.40
-35.26
-23.39
-12.29
-2.91
4.43
9.90
13.79
16.32
17.61
17.85
17.41
16.83
16.69
17.27
18.55
20.18
21.69
22.73
23.17
23.01
22.31
21.01
18.96
16.04
12.29
7.96
3.42
-0.96
-5.00
-8.79
-12.53
-16.59
-21.28
-26.81
-33.25
-40.30
-47.28
-53.08
-56.35
-55.95
-51.37
-42.94
-31.86
-19.77
-8.24
1.62
9.37
15.07
19.06
21.62
23.00
23.35
22.96
22.25
21.76
21.90
22.80
24.26
25.73
26.69
26.81
26.05
24.68
23.01
21.19
19.09
16.41
12.88
8.49
3.54
-1.44
-5.93
-9.71
-12.90
-15.97
-19.52
-24.11
-30.07
-37.31
-45.33
-53.15
-59.44
-62.78
-62.06
-56.88
-47.73
-35.92
-23.15
-11.04
-0.64
7.69
14.08
18.91
22.48
24.89
26.16
26.45
26.16
25.90
26.25
27.51
29.48
31.60
33.16
33.68
33.10
31.74
30.12
28.56
27.05
25.18
22.42
18.45
13.33
7.58
1.92
-3.00
-6.92
-10.03
-12.84
-16.00
-20.03
-25.28
-31.76
-39.20
-46.90
-53.80
-58.55
-59.85
-56.89
-49.73
-39.31
-27.16
-14.94
-3.92
5.31
12.70
18.50
22.94
26.06
27.86
28.44
28.18
27.71
27.70
28.61
30.43
32.68
34.68
35.74
35.52
34.12
31.97
29.64
27.49
25.52
23.45
20.83
17.29
12.81
7.74
2.63
-1.99
-5.90
-9.20
-12.32
-15.77
-20.00
-25.21
-31.41
-38.41
-45.83
-52.98
-58.93
-62.56
-62.81
-59.11
-51.60
-41.17
-29.24
-17.32
-6.55
2.50
9.78
15.48
19.80
22.78
24.44
24.95
24.75
24.48
24.82
26.11
28.26
30.74
32.85
34.01
33.97
32.85
31.02
28.86
26.60
24.24
21.62
18.51
14.80
10.52
5.94
1.40
-2.79
-6.46
-9.71
-12.80
-16.16
-20.12
-24.93
-30.62
-37.04
-43.86
-50.41
-55.76
-58.76
-58.39
-54.06
-45.98
-35.17
-23.17
-11.57
-1.53
6.46
12.46
16.74
19.60
21.20
21.71
21.52
21.24
21.56
22.93
25.33
28.23
30.80
32.32
32.50
31.58
30.09
28.56
27.18
25.74
23.81
20.98
17.14
12.55
7.76
3.31
-0.44
-3.46
-6.00
-8.52
-11.50
-15.35
-20.35
-26.51
-33.58
-40.94
-47.59
-52.29
-53.87
-51.57
-45.39
-36.11
-25.13
-13.96
-3.80
4.69
11.34
16.31
19.79
21.90
22.80
22.77
22.29
21.92
22.14
23.12
24.69
26.44
27.92
28.82
29.05
28.69
27.86
26.60
24.84
22.43
19.23
15.27
10.75
6.04
1.55
-2.41
-5.78
-8.74
-11.72
-15.23
-19.70
-25.30
-31.82
-38.57
-44.46
-48.21
-48.75
-45.53
-38.79
-29.49
-19.01
-8.75
0.28
7.57
13.07
16.94
19.41
20.67
20.94
20.55
19.96
19.64
19.92
20.82
22.08
23.35
24.26
24.64
24.51
23.95
23.06
21.81
20.09
17.73
14.62
10.84
6.59
2.19
-2.05
-5.95
-9.48
-12.87
-16.46
-20.68
-25.79
-31.74
-38.01
-43.65
-47.44
-48.26
-45.45
-39.08
-30.05
-19.75
-9.68
-1.02
5.64
10.28
13.17
14.68
15.08
14.61
13.58
12.42
11.61
11.55
12.35
13.80
15.47
16.87
17.65
17.67
16.95
15.58
13.62
11.17
8.32
5.25
2.14
-0.85
-3.67
-6.38
-9.13
-12.14
-15.67
-20.01
-25.30
-31.42
-37.78
-43.32
-46.77
-46.98
-43.43
-36.36
-26.82
-16.24
-6.04
2.73
9.55
14.30
17.18
18.45
18.46
17.61
16.42
15.39
14.98
15.40
16.55
18.06
19.44
20.34
20.60
20.31
19.58
18.45
16.81
14.43
11.21
7.26
2.92
-1.38
-5.33
-8.85
-12.07
-15.37
-19.15
-23.78
-29.51
-36.25
-43.47
-50.13
-54.90
-56.45
-53.97
-47.48
-37.90
-26.74
-15.63
-5.73
2.41
8.87
14.00
18.10
21.27
23.42
24.52
24.79
24.74
25.00
26.03
27.90
30.22
32.31
33.55
33.62
32.63
31.00
29.17
27.38
25.56
23.37
20.45
16.63
12.02
6.96
1.93
-2.72
-6.84
-10.53
-14.15
-18.09
-22.78
-28.48
-35.30
-43.05
-51.19
-58.79
-64.64
-67.50
-66.46
-61.28
-52.49
-41.31
-29.20
-17.48
-7.01
1.93
9.39
15.57
20.59
24.50
27.40
29.49
31.12
32.70
34.49
36.56
38.78
40.87
42.55
43.63
43.98
43.67
42.73
41.27
39.34
37.01
34.28
31.16
27.66
23.82
19.72
15.48
11.20
6.95
2.76
-1.37
-5.48
-9.59
-13.78
-18.19
-23.05
-28.73
-35.46
-43.22
-51.48
-59.15
-64.79
-67.01
-65.02
-58.87
-49.50
-38.35
-26.88
-16.13
-6.56
1.84
9.26
15.79
21.39
25.88
29.19
31.45
32.99
34.25
35.59
37.19
39.00
40.77
42.24
43.21
43.63
43.51
42.90
41.77
40.05
37.64
34.58
31.02
27.28
23.65
20.32
17.28
14.31
11.12
7.51
3.41
-1.02
-5.54
-9.92
-14.07
-18.08
-22.23
-26.89
-32.39
-38.89
-46.21
-53.68
-60.21
-64.46
-65.23
-61.92
-54.76
-44.76
-33.39
-22.07
-11.79
-2.96
4.49
10.82
16.21
20.67
24.08
26.46
28.00
29.11
30.25
31.76
33.73
35.92
37.97
39.49
40.30
40.43
40.08
39.43
38.50
37.18
35.26
32.65
29.47
25.99
22.58
19.50
16.76
14.20
11.52
8.53
5.15
1.50
-2.24
-5.90
-9.39
-12.74
-16.06
-19.48
-23.21
-27.45
-32.45
-38.35
-45.02
-51.95
-58.20
-62.60
-64.03
-61.84
-56.08
-47.51
-37.30
-26.71
-16.72
-7.89
-0.41
5.75
10.63
14.29
16.80
18.40
19.49
20.58
22.10
24.24
26.86
29.57
31.91
33.58
34.47
34.72
34.55
34.08
33.28
31.96
29.94
27.11
23.60
19.75
15.98
12.62
9.84
7.48
5.19
2.54
-0.75
-4.75
-9.24
-13.85
-18.20
-22.04
-25.39
-28.48
-31.73
-35.64
-40.60
-46.75
-53.82
-61.03
-67.15
-70.76
-70.60
-66.01
-57.20
-45.24
-31.80
-18.71
-7.32
1.63
8.15
12.70
15.84
18.01
19.44
20.25
20.66
21.04
21.81
23.34
25.66
28.46
31.24
33.50
34.97
35.72
36.00
36.06
35.97
35.57
34.54
32.64
29.84
26.42
22.82
19.51
16.78
14.66
12.88
10.99
8.58
5.39
1.45
-2.98
-7.53
-11.87
-15.90
-19.80
-23.98
-28.91
-34.95
-42.10
-49.83
-57.14
-62.69
-65.17
-63.69
-58.13
-49.20
-38.17
-26.51
-15.47
-5.78
2.30
8.79
13.80
17.40
19.71
20.97
21.59
22.10
22.96
24.40
26.40
28.69
30.90
32.74
33.99
34.62
34.65
34.14
33.14
31.72
29.91
27.79
25.44
22.96
20.41
17.76
14.95
11.86
8.48
4.90
1.30
-2.14
-5.36
-8.49
-11.76
-15.49
-19.95
-25.27
-31.40
-38.02
-44.48
-49.81
-52.93
-52.88
-49.23
-42.25
-32.92
-22.63
-12.74
-4.17
2.70
7.94
11.83
14.59
16.33
17.10
17.04
16.46
15.78
15.41
15.62
16.41
17.62
18.93
20.01
20.55
20.34
19.27
17.28
14.45
10.91
6.86
2.47
-2.10
-6.71
-11.26
-15.61
-19.63
-23.26
-26.49
-29.40
-32.07
-34.60
-36.99
-39.23
-41.27
-43.02
-44.32
-44.89
-44.35
-42.30
-38.55
-33.24
-26.83
-19.99
-13.32
-7.16
-1.55
3.63
8.44
12.77
16.36
18.99
20.70
21.87
23.04
24.68
26.95
29.59
32.07
33.83
34.57
34.28
33.25
31.78
30.07
28.13
25.81
23.00
19.62
15.73
11.51
7.17
2.90
-1.23
-5.20
-9.16
-13.31
-17.90
-23.12
-28.97
-35.19
-41.18
-46.04
-48.77
-48.51
-44.90
-38.21
-29.33
-19.49
-9.90
-1.46
5.39
10.55
14.11
16.20
16.98
16.77
16.06
15.40
15.27
15.87
17.09
18.57
19.93
20.87
21.27
21.14
20.47
19.22
17.26
14.48
10.86
6.56
1.87
-2.89
-7.39
-11.50
-15.25
-18.88
-22.78
-27.37
-32.99
-39.74
-47.29
-54.82
-61.15
-64.91
-65.02
-61.04
-53.30
-42.91
-31.36
-20.07
-10.04
-1.69
5.04
10.43
14.72
18.05
20.43
21.90
22.69
23.16
23.69
24.58
25.83
27.24
28.45
29.16
29.17
28.45
27.03
24.88
21.95
18.18
13.62
8.50
3.18
-2.02
-6.93
-11.65
-16.48
-21.83
-28.05
-35.21
-42.95
-50.43
-56.47
-59.76
-59.29
-54.64
-46.22
-35.17
-22.97
-11.10
-0.61
8.02
14.76
19.82
23.47
25.88
27.24
27.79
27.86
27.92
28.33
29.31
30.82
32.56
34.08
34.98
34.92
33.79
31.61
28.53
24.76
20.52
15.98
11.32
6.65
2.00
-2.66
-7.46
-12.66
-18.58
-25.47
-33.33
-41.71
-49.57
-55.56
-58.23
-56.61
-50.53
-40.75
-28.74
-16.17
-4.38
5.88
14.46
21.51
27.17
31.46
34.33
35.88
36.50
36.82
37.48
38.77
40.58
42.41
43.68
44.01
43.37
41.99
40.18
38.07
35.59
32.47
28.49
23.61
18.08
12.36
6.95
2.14
-2.11
-6.21
-10.76
-16.32
-23.16
-31.17
-39.69
-47.66
-53.77
-56.77
-55.81
-50.73
-42.12
-31.16
-19.30
-7.79
2.59
11.54
19.11
25.39
30.37
33.92
35.96
36.71
36.69
36.61
37.12
38.51
40.60
42.82
44.46
44.96
44.17
42.28
39.73
36.92
34.10
31.22
28.11
24.54
20.39
15.73
10.80
5.87
1.18
-3.20
-7.38
-11.62
-16.23
-21.54
-27.77
-35.00
-43.01
-51.29
-58.91
-64.69
-67.42
-66.18
-60.73
-51.62
-40.02
-27.40
-15.08
-3.92
5.80
14.14
21.30
27.39
32.39
36.23
39.03
41.09
42.84
44.68
46.77
48.98
50.96
52.35
52.92
52.66
51.73
50.28
48.37
45.88
42.65
38.63
34.02
29.20
24.65
20.69
17.33
14.22
10.85
6.78
1.89
-3.56
-9.12
-14.39
-19.20
-23.71
-28.27
-33.29
-39.15
-46.03
-53.84
-62.07
-69.77
-75.67
-78.45
-77.26
-71.97
-63.32
-52.61
-41.26
-30.30
-20.19
-10.92
-2.29
5.79
13.18
19.51
24.48
28.01
30.35
31.99
33.43
35.00
36.68
38.21
39.25
39.53
39.05
38.04
36.80
35.57
34.43
33.30
32.10
30.82
29.56
28.48
27.67
27.11
26.59
25.83
24.54
22.50
19.61
15.89
11.45
6.59
1.61
-3.19
-7.73
-12.23
-17.16
-23.05
-30.22
-38.52
-47.21
-55.08
-60.78
-63.23
-61.97
-57.21
-49.81
-40.90
-31.51
-22.30
-13.54
-5.21
2.74
10.13
16.61
21.77
25.45
27.80
29.29
30.49
31.86
33.57
35.50
37.34
38.78
39.59
39.76
39.45
38.86
38.18
37.41
36.42
35.00
33.02
30.51
27.67
24.82
22.22
19.99
18.09
16.32
14.41
12.09
9.17
5.61
1.50
-2.90
-7.32
-11.48
-15.33
-19.05
-22.97
-27.53
-33.07
-39.64
-46.91
-54.14
-60.26
-64.14
-64.94
-62.36
-56.79
-49.12
-40.48
-31.90
-24.09
-17.36
-11.73
-7.03
-3.09
0.25
3.06
5.37
7.30
9.01
10.71
12.58
14.65
16.75
18.56
19.71
20.05
19.67
18.94
18.28
17.98
18.04
18.24
18.25
17.86
17.15
16.36
15.78
15.57
15.67
15.80
15.63
14.89
13.50
11.49
9.05
6.42
3.86
1.59
-0.33
-2.00
-3.76
-6.04
-9.27
-13.70
-19.37
-25.96
-32.89
-39.27
-44.02
-46.16
-45.06
-40.70
-33.70
-25.11
-16.08
-7.41
0.57
7.93
14.86
21.37
27.05
31.25
33.31
32.92
30.36
26.49
22.52
19.57
18.37
19.10
21.37
24.44
27.55
30.02
31.48
31.75
30.88
29.02
26.37
23.14
19.48
15.53
11.45
7.52
4.11
1.64
0.39
0.34
1.10
1.95
2.11
0.98
-1.67
-5.64
-10.41
-15.43
-20.27
-24.73
-28.81
-32.61
-36.27
-39.87
-43.41
-46.77
-49.65
-51.57
-51.94
-50.31
-46.54
-41.01
-34.47
-27.91
-22.15
-17.66
-14.42
-12.06
-10.07
-7.95
-5.37
-2.12
1.87
6.48
11.49
16.54
21.15
24.79
27.04
27.68
26.79
24.70
21.96
19.04
16.28
13.76
11.41
9.18
7.14
5.47
4.36
3.86
3.77
3.72
3.24
1.95
-0.30
-3.50
-7.45
-11.87
-16.43
-20.85
-24.99
-28.84
-32.62
-36.69
-41.36
-46.69
-52.30
-57.35
-60.74
-61.46
-59.02
-53.65
-46.20
-37.87
-29.81
-22.75
-16.99
-12.42
-8.77
-5.70
-2.92
-0.13
2.90
6.32
10.13
14.11
17.91
21.12
23.48
24.90
25.54
25.72
25.72
25.73
25.70
25.40
24.58
23.10
21.07
18.80
16.68
14.93
13.48
12.02
10.12
7.52
4.17
0.33
-3.65
-7.44
-10.89
-14.05
-17.12
-20.34
-23.99
-28.27
-33.30
-38.88
-44.43
-49.05
-51.70
-51.53
-48.22
-42.11
-34.10
-25.34
-16.92
-9.56
-3.55
1.18
4.81
7.51
9.34
10.30
10.49
10.15
9.74
9.73
10.45
11.88
13.70
15.38
16.51
16.90
16.65
16.01
15.22
14.41
13.62
12.84
12.10
11.45
10.93
10.50
10.04
9.41
8.50
7.28
5.75
3.96
1.93
-0.30
-2.77
-5.57
-8.89
-12.92
-17.87
-23.65
-29.82
-35.48
-39.46
-40.66
-38.47
-33.00
-25.09
-16.02
-7.05
0.88
7.38
12.43
16.18
18.80
20.33
20.85
20.51
19.63
18.70
18.16
18.31
19.20
20.60
22.07
23.15
23.46
22.80
21.19
18.84
16.03
12.99
9.85
6.59
3.15
-0.49
-4.25
-7.95
-11.37
-14.42
-17.12
-19.72
-22.53
-25.84
-29.84
-34.58
-40.00
-45.90
-51.97
-57.65
-62.15
-64.56
-64.05
-60.19
-53.16
-43.75
-33.16
-22.65
-13.17
-5.22
1.12
5.98
9.53
11.91
13.27
13.90
14.31
15.05
16.56
18.98
22.03
25.11
27.57
29.00
29.30
28.77
27.81
26.73
25.57
24.16
22.20
19.53
16.21
12.52
8.80
5.32
2.14
-0.93
-4.21
-8.02
-12.58
-17.89
-23.65
-29.29
-33.98
-36.79
-36.94
-34.03
-28.27
-20.41
-11.57
-2.94
4.59
10.56
14.89
17.81
19.58
20.48
20.74
20.67
20.63
21.02
22.15
24.12
26.79
29.81
32.78
35.33
37.22
38.38
38.80
38.48
37.36
35.30
32.10
27.63
21.94
15.28
8.16
1.20
-5.09
-10.42
-14.90
-18.93
-23.09
-27.90
-33.63
-40.09
-46.62
-52.22
-55.74
-56.25
-53.26
-46.95
-38.09
-27.86
-17.52
-8.04
0.01
6.49
11.49
15.20
17.78
19.35
20.13
20.45
20.74
21.41
22.66
24.42
26.38
28.10
29.26
29.70
29.50
28.83
27.82
26.46
24.59
22.01
18.63
14.58
10.21
5.93
2.09
-1.23
-4.23
-7.36
-11.07
-15.70
-21.30
-27.56
-33.84
-39.26
-42.84
-43.72
-41.43
-36.02
-28.14
-18.85
-9.35
-0.63
6.75
12.64
17.18
20.58
22.91
24.22
24.60
24.36
24.01
24.08
24.88
26.36
28.08
29.49
30.15
29.99
29.22
28.18
27.10
25.98
24.60
22.66
20.00
16.65
12.82
8.80
4.88
1.24
-2.10
-5.24
-8.42
-11.89
-15.91
-20.68
-26.29
-32.59
-39.09
-44.98
-49.18
-50.62
-48.56
-42.98
-34.61
-24.73
-14.77
-5.87
1.49
7.36
12.05
15.88
18.94
21.14
22.45
23.09
23.50
24.25
25.71
27.88
30.37
32.55
33.88
34.02
33.03
31.18
28.92
26.60
24.40
22.26
19.96
17.25
14.01
10.34
6.54
2.91
-0.37
-3.33
-6.20
-9.19
-12.49
-16.17
-20.35
-25.25
-31.08
-37.77
-44.79
-51.05
-55.16
-55.96
-52.98
-46.58
-37.87
-28.24
-18.85
-10.44
-3.21
2.90
8.04
12.28
15.60
18.01
19.64
20.76
21.77
23.04
24.77
26.91
29.17
31.15
32.54
33.12
32.91
32.02
30.61
28.79
26.62
24.18
21.58
18.99
16.56
14.35
12.29
10.22
7.95
5.36
2.41
-0.85
-4.31
-7.88
-11.55
-15.38
-19.58
-24.44
-30.14
-36.60
-43.29
-49.23
-53.22
-54.19
-51.59
-45.64
-37.30
-27.87
-18.65
-10.50
-3.72
1.88
6.65
10.90
14.72
18.05
20.81
23.02
24.92
26.79
28.84
31.07
33.25
35.04
36.21
36.68
36.55
36.02
35.18
34.01
32.38
30.17
27.42
24.32
21.16
18.20
15.51
12.96
10.29
7.30
3.90
0.24
-3.41
-6.83
-9.93
-12.85
-15.87
-19.35
-23.59
-28.68
-34.47
-40.44
-45.79
-49.54
-50.82
-49.10
-44.41
-37.36
-28.92
-20.20
-12.07
-5.03
0.80
5.54
9.38
12.46
14.90
16.85
18.51
20.12
21.93
24.03
26.32
28.57
30.47
31.78
32.44
32.50
32.12
31.46
30.61
29.49
27.99
25.94
23.29
20.18
16.91
13.81
11.13
8.86
6.75
4.44
1.73
-1.40
-4.71
-7.89
-10.76
-13.40
-16.10
-19.28
-23.23
-28.08
-33.69
-39.73
-45.64
-50.68
-54.00
-54.77
-52.52
-47.30
-39.82
-31.19
-22.64
-15.06
-8.78
-3.63
0.75
4.67
8.14
11.02
13.16
14.68
15.93
17.33
19.11
21.22
23.29
24.94
25.95
26.37
26.47
26.48
26.44
26.17
25.32
23.67
21.23
18.28
15.25
12.52
10.31
8.56
7.00
5.32
3.25
0.69
-2.26
-5.41
-8.53
-11.48
-14.27
-17.07
-20.16
-23.82
-28.25
-33.41
-39.00
-44.38
-48.61
-50.70
-49.84
-45.78
-38.94
-30.40
-21.49
-13.37
-6.73
-1.64
2.24
5.30
7.80
9.81
11.34
12.48
13.49
14.67
16.21
18.08
20.04
21.79
23.07
23.78
23.94
23.64
22.96
21.95
20.63
19.00
17.03
14.74
12.17
9.45
6.77
4.24
1.88
-0.39
-2.79
-5.46
-8.46
-11.67
-14.91
-18.03
-21.08
-24.28
-27.97
-32.46
-37.81
-43.71
-49.48
-54.13
-56.69
-56.46
-53.28
-47.55
-40.18
-32.23
-24.64
-17.99
-12.49
-8.05
-4.46
-1.51
0.92
2.98
4.85
6.70
8.70
10.94
13.36
15.79
18.08
20.08
21.74
23.09
24.14
24.86
25.12
24.68
23.34
21.04
17.97
14.48
10.97
7.69
4.59
1.41
-2.26
-6.70
-12.00
-17.93
-24.10
-30.00
-35.15
-39.19
-42.00
-43.71
-44.69
-45.45
-46.29
-47.12
-47.38
-46.22
-42.86
-37.07
-29.26
-20.47
-11.93
-4.63
0.98
5.02
8.01
10.45
12.66
14.66
16.28
17.40
18.07
18.55
19.22
20.46
22.41
25.03
28.10
31.39
34.64
37.62
40.07
41.66
42.11
41.29
39.38
36.89
34.46
32.59
31.29
30.09
28.22
25.03
20.37
14.82
9.39
5.10
2.55
1.58
1.44
1.10
-0.34
-3.40
-8.07
-13.90
-20.07
-25.56
-29.20
-29.92
-27.04
-20.55
-11.22
-0.45
10.08
18.92
25.22
28.78
29.93
29.24
27.27
24.52
21.37
18.21
15.39
13.18
11.70
10.93
10.68
10.74
10.88
10.94
10.83
10.47
9.86
9.04
8.07
6.99
5.79
4.41
2.79
0.90
-1.21
-3.47
-5.78
-8.14
-10.61
-13.27
-16.26
-19.65
-23.59
-28.18
-33.48
-39.40
-45.56
-51.27
-55.62
-57.68
-56.81
-52.84
-46.19
-37.74
-28.59
-19.73
-11.85
-5.19
0.38
5.11
9.26
12.92
16.12
18.85
21.21
23.39
25.54
27.69
29.74
31.45
32.62
33.17
33.13
32.61
31.67
30.29
28.45
26.16
23.53
20.73
17.93
15.16
12.38
9.47
6.34
3.06
-0.26
-3.42
-6.34
-9.03
-11.67
-14.49
-17.77
-21.77
-26.68
-32.57
-39.23
-46.08
-52.14
-56.24
-57.33
-54.93
-49.27
-41.30
-32.22
-23.24
-15.10
-8.16
-2.42
2.26
5.93
8.58
10.16
10.72
10.43
9.61
8.66
7.94
7.62
7.72
8.05
8.35
8.49
8.54
8.75
9.41
10.72
12.62
14.85
17.05
18.94
20.41
21.50
22.30
22.81
23.00
22.68
21.75
20.15
17.99
15.44
12.70
9.86
6.86
3.47
-0.63
-5.78
-12.11
-19.43
-27.12
-34.19
-39.42
-41.74
-40.55
-35.91
