1571132161.00
64.000000
-0.00
-0.00
-0.00
-0.00
-0.00
-0.00
-0.00
-0.00
-0.00
-0.00
0.00
0.01
0.01
-0.00
-0.03
-0.05
-0.05
0.00
0.13
0.36
0.66
1.01
1.37
1.72
2.06
2.40
2.79
3.24
3.80
4.42
5.06
5.66
6.20
6.68
7.15
7.68
8.31
9.14
10.09
11.04
11.88
12.56
13.14
13.76
14.65
15.96
17.91
20.32
22.90
25.38
27.58
29.57
31.68
34.32
37.81
42.54
48.15
54.10
59.83
64.97
69.58
74.14
79.34
85.71
93.76
103.00
112.62
121.73
129.77
136.75
143.30
150.75
157.77
166.64
177.95
191.79
206.97
220.57
228.25
225.36
208.53
176.87
132.76
80.05
23.07
-34.94
-92.44
-149.16
-205.23
-260.37
-313.74
-363.87
-409.83
-450.91
-486.50
-515.74
-537.23
-549.22
-549.96
-538.37
-514.21
-478.67
-433.88
-382.45
-327.02
-269.84
-212.63
-156.66
-102.95
-52.37
-5.90
35.58
71.43
101.35
125.50
144.38
158.69
169.15
176.37
180.75
182.57
182.07
179.51
175.23
169.65
163.18
156.15
148.81
141.30
133.69
126.02
118.33
110.69
103.16
95.80
88.68
81.83
75.25
68.95
62.95
57.25
51.86
46.78
42.03
37.58
33.45
29.61
26.07
22.81
19.83
17.12
14.69
12.52
10.61
8.94
7.49
6.27
5.24
4.39
3.69
3.13
2.69
2.36
2.11
1.93
1.81
1.75
1.72
1.74
1.78
1.86
1.96
2.09
2.24
2.41
2.62
2.85
3.11
3.41
3.74
4.11
4.51
4.95
5.43
5.98
6.59
7.27
8.03
8.83
9.64
10.44
11.23
12.06
12.99
14.09
15.38
16.84
18.43
20.10
21.74
23.36
25.01
26.79
28.78
31.02
33.48
36.07
38.65
41.02
43.09
44.86
46.31
47.40
47.93
47.53
45.72
42.05
36.07
27.81
17.72
6.49
-5.06
-16.36
-27.22
-37.80
-47.74
-57.58
-67.24
-76.08
-83.27
-88.01
-90.15
-90.30
-90.10
-90.72
-93.21
-97.70
-103.39
-108.93
-113.00
-114.90
-114.85
-113.71
-112.48
-112.19
-113.52
-116.76
-122.00
-127.26
-129.24
-123.58
-106.42
-76.42
-36.35
7.48
47.26
76.69
93.34
98.77
97.10
92.51
87.51
82.47
76.85
70.46
64.09
59.26
57.04
57.43
59.28
60.88
60.58
57.75
52.90
47.40
42.92
40.67
40.96
43.18
46.14
48.56
49.67
49.46
48.67
48.51
50.02
53.73
59.45
66.38
73.42
79.64
84.53
88.17
91.09
93.96
97.71
103.63
113.34
128.16
147.93
169.87
188.44
196.69
188.60
161.89
119.27
67.60
14.92
-32.52
-72.41
-106.43
-137.38
-168.26
-201.44
-238.65
-281.24
-329.74
-382.55
-434.69
-477.81
-502.17
-500.40
-470.29
-415.84
-345.45
-268.72
-193.17
-123.03
-59.83
-3.98
43.82
82.75
112.73
135.14
152.54
167.42
181.07
193.05
201.93
206.06
204.80
198.71
189.19
177.81
165.78
153.83
142.37
131.54
121.22
111.13
100.78
89.74
77.93
65.66
53.56
42.34
32.59
24.76
19.26
16.46
16.64
19.68
24.91
31.12
36.90
41.14
43.34
43.82
43.50
43.39
44.29
46.44
49.59
53.22
56.87
60.28
63.27
65.21
64.77
60.09
49.68
33.41
13.04
-8.15
-26.69
-40.24
-48.36
-52.24
-53.69
-54.09
-53.99
-53.39
-52.39
-51.48
-51.32
-52.22
-53.61
-54.23
-52.69
-48.17
-40.74
-31.24
-20.87
-10.62
-1.01
7.87
16.14
23.94
31.26
37.86
43.23
46.55
46.87
43.42
35.95
25.06
12.04
-1.49
-14.14
-25.10
-34.06
-40.91
-45.38
-46.99
-45.34
-40.64
-33.91
-26.69
-20.42
-15.72
-12.23
-8.98
-5.17
-0.70
3.64
6.70
7.67
6.58
4.31
2.06
0.71
0.36
0.39
-0.09
-1.92
-5.62
-11.52
-19.94
-31.04
-44.52
-59.18
-72.80
-82.57
-86.01
-81.85
-70.56
-54.13
-35.27
-16.48
0.65
15.50
28.13
38.81
47.89
55.73
62.98
70.46
78.91
88.52
98.67
107.98
114.84
118.09
117.53
113.95
108.74
103.22
98.11
93.29
88.08
81.69
73.68
64.20
53.87
43.57
34.07
25.86
19.02
13.44
8.92
5.30
2.61
0.98
0.55
1.34
3.19
5.81
8.97
12.49
16.25
20.05
23.48
26.01
27.12
26.57
24.56
21.63
18.44
15.45
12.84
10.52
8.38
6.43
4.77
3.49
2.56
1.83
1.14
0.35
-0.74
-2.43
-5.26
-9.81
-16.40
-24.84
-34.34
-43.79
-52.20
-59.17
-64.93
-70.11
-75.25
-80.45
-85.36
-89.46
-92.44
-94.37
-95.67
-96.73
-97.63
-98.08
-97.48
-95.35
-91.57
-86.49
-80.79
-75.13
-69.92
-65.17
-60.59
-55.77
-50.43
-44.43
-37.87
-30.92
-23.81
-16.79
-10.10
-3.93
1.64
6.63
11.24
15.73
20.41
25.56
31.33
37.46
43.15
47.01
47.50
43.65
35.69
25.26
14.90
6.99
2.73
1.68
2.09
1.87
-0.42
-5.03
-11.17
-17.67
-23.58
-28.46
-32.19
-34.70
-35.73
-35.03
-32.55
-28.68
-24.24
-20.27
-17.58
-16.49
-16.74
-17.62
-18.35
-18.35
-17.45
-15.81
-13.78
-11.59
-9.26
-6.48
-2.87
1.87
7.88
15.08
23.29
32.27
41.75
51.46
61.02
70.09
78.21
84.96
89.92
92.67
92.87
90.34
85.09
77.29
67.18
54.78
40.10
23.40
5.49
-12.27
-28.21
-41.00
-50.15
-56.23
-60.94
-65.98
-72.38
-80.18
-88.66
-96.82
-103.80
-109.03
-112.15
-114.04
-115.92
-119.09
-124.41
-131.82
-140.17
-147.53
-151.85
-151.77
-148.74
-145.45
-144.70
-148.04
-154.93
-162.93
-168.77
-169.40
-162.76
-150.35
-135.32
-121.66
-113.07
-112.05
-119.20
-133.38
-151.94
-158.81
-140.92
-90.94
-11.38
85.98
185.89
276.17
350.36
406.87
447.12
471.84
481.50
478.37
465.09
444.33
418.81
390.57
360.78
329.89
296.48
258.87
215.38
168.27
119.46
70.44
21.43
-28.61
-80.81
-135.51
-189.60
-235.80
-263.91
-264.08
-230.04
-162.16
-68.45
37.10
137.56
217.67
267.54
284.32
271.53
236.97
189.68
137.15
83.76
30.80
-22.66
-78.59
-139.39
-207.62
-284.46
-368.28
-453.38
-530.22
-587.84
-617.39
-615.16
-583.65
-530.35
-464.77
-395.69
-329.41
-269.61
-217.69
-173.35
-134.81
-99.05
-62.09
-19.59
32.11
94.54
165.84
240.10
307.69
357.45
379.96
370.25
329.56
264.86
187.03
108.56
41.29
-5.51
-26.92
-23.63
-1.94
28.42
57.96
81.37
99.05
115.17
133.60
153.70
169.32
171.19
151.38
107.55
44.19
-28.76
-99.33
-156.63
-192.97
-204.87
-193.21
-162.90
-121.98
-79.78
-44.19
-19.40
-4.59
5.51
18.42
41.34
78.51
129.43
188.47
246.05
291.29
315.57
315.20
292.15
252.65
204.10
152.62
102.19
55.64
16.36
-11.11
-22.29
-15.31
7.18
38.28
69.49
94.33
110.76
121.08
129.62
139.51
150.59
159.44
161.26
152.32
131.73
101.61
65.58
26.86
-13.19
-54.70
-97.72
-140.58
-179.45
-209.81
-229.04
-238.64
-244.14
-252.43
-267.79
-288.78
-307.98
-314.95
-301.29
-264.79
-210.73
-149.56
-92.31
-46.49
-14.45
5.14
14.54
14.96
6.55
-9.88
-31.34
-52.65
-68.48
-75.96
-76.04
-72.34
-68.87
-67.79
-69.24
-72.64
-77.97
-85.70
-95.19
-103.44
-105.71
-98.27
-81.28
-59.60
-40.34
-28.74
-25.09
-24.80
-21.59
-11.50
4.99
23.90
40.86
53.82
63.79
73.31
84.21
96.44
108.26
117.86
124.66
129.55
133.96
138.70
143.40
147.10
149.43
151.54
156.08
165.88
182.03
202.65
223.32
239.07
246.83
246.87
242.12
235.64
228.20
217.40
199.63
173.28
141.42
111.51
92.02
87.84
97.33
113.15
126.15
130.01
123.71
110.85
96.52
84.25
74.51
65.47
54.60
40.20
21.93
0.49
-22.86
-46.51
-68.47
-86.57
-98.95
-104.81
-104.82
-101.06
-96.23
-92.79
-92.28
-94.94
-100.02
-106.16
-112.17
-117.65
-123.24
-130.58
-142.19
-161.19
-190.64
-232.31
-285.12
-343.92
-399.96
-443.18
-465.75
-464.89
-443.79
-409.99
-372.03
-336.32
-305.61
-279.39
-255.69
-232.83
-210.10
-187.58
-165.41
-143.27
-120.42
-96.09
-69.72
-41.09
-10.42
22.21
57.14
95.09
136.62
181.22
226.75
269.64
305.90
332.44
348.49
355.84
357.68
356.79
354.03
348.16
336.90
318.60
292.83
261.15
226.23
190.53
155.24
119.87
82.82
42.44
-1.78
-49.42
-97.97
-143.18
-180.40
-206.00
-218.65
-219.79
-213.00
-202.68
-193.80
-189.33
-189.69
-193.15
-197.24
-200.22
-201.60
-201.77
-192.64
-168.44
-126.61
-69.55
-4.07
61.36
119.46
165.79
199.36
222.10
236.19
243.96
246.99
246.09
241.71
234.23
224.34
213.30
202.67
193.38
185.03
176.81
168.10
158.64
148.63
138.74
130.08
123.93
120.60
119.77
120.15
120.26
118.79
114.91
108.52
100.13
90.38
78.88
66.83
53.53
37.52
17.45
-7.18
-35.53
-65.47
-94.44
-120.39
-142.57
-162.12
-181.08
-201.92
-226.78
-257.12
-293.18
-333.50
-374.56
-410.79
-435.89
-444.44
-434.16
-407.17
-369.62
-329.54
-293.94
-266.39
-246.46
-230.99
-215.96
-198.22
-176.19
-149.51
-118.23
-82.52
-42.89
-0.77
41.12
79.09
109.27
128.72
136.45
134.15
126.08
118.12
115.96
122.77
137.52
154.83
166.79
166.32
150.67
122.90
90.60
62.28
43.25
33.72
29.92
27.49
24.92
24.66
31.35
48.35
74.99
106.21
135.06
156.34
168.93
175.34
179.02
181.23
179.88
170.92
151.29
121.50
86.31
52.80
27.06
11.29
3.29
-1.78
-8.09
-16.82
-25.83
-31.16
-29.48
-19.87
-3.86
16.40
40.06
68.01
101.12
137.34
171.40
196.46
206.74
199.73
176.42
139.47
91.57
34.84
-28.34
-91.32
-142.22
-168.22
-161.66
-124.94
-70.76
-16.47
22.40
35.58
21.83
-12.24
-57.08
-103.41
-143.57
-171.87
-183.62
-176.52
-153.73
-120.37
-80.11
-35.04
14.93
70.97
125.26
166.77
198.50
218.51
217.43
193.38
151.93
104.94
66.73
49.41
59.86
96.70
148.35
199.22
236.15
251.36
245.00
224.66
201.90
188.10
189.12
201.22
214.95
220.90
212.99
190.85
158.65
121.86
84.53
47.70
9.40
-31.56
-73.14
-111.31
-141.78
-162.49
-174.78
-182.62
-191.08
-204.90
-226.65
-256.09
-291.05
-328.45
-365.16
-398.39
-425.61
-444.28
-452.14
-447.43
-429.66
-400.69
-364.92
-328.60
-298.10
-277.70
-268.18
-266.55
-267.42
-265.18
-255.97
-238.79
-215.27
-188.54
-161.95
-138.21
-119.12
-105.50
-97.52
-94.78
-96.34
-100.75
-106.20
-110.91
-113.62
-113.89
-112.14
-109.29
-106.23
-103.38
-100.43
-96.56
-90.81
-82.60
-72.01
-59.81
-47.17
-35.19
-24.48
-14.98
-6.08
3.12
13.27
24.55
36.57
48.56
59.71
69.62
78.46
86.91
95.89
106.14
117.93
130.99
144.68
158.39
171.77
184.94
198.36
212.73
228.78
247.32
269.11
294.42
322.46
350.96
376.28
394.39
402.23
398.89
385.90
366.43
343.96
321.02
298.78
277.46
257.19
238.51
222.26
208.98
198.39
189.35
180.28
170.00
158.04
144.72
130.68
116.37
101.74
86.31
69.54
51.30
32.18
13.44
-3.22
-16.29
-24.84
-28.94
-29.57
-28.28
-26.66
-25.89
-26.46
-28.22
-30.69
-33.36
-35.96
-38.37
-40.54
-42.34
-43.48
-43.68
-42.82
-41.03
-38.66
-36.09
-33.58
-31.15
-28.68
-25.99
-23.01
-19.89
-16.85
-14.15
-11.92
-10.13
-8.65
-7.28
-5.87
-4.33
-2.66
-0.89
0.95
2.93
5.24
8.19
12.11
17.34
24.05
32.20
41.57
51.75
62.17
72.24
81.41
89.31
95.97
101.84
107.66
114.34
122.60
132.64
143.98
155.35
164.93
170.79
171.52
166.79
157.72
146.71
136.81
130.86
130.60
136.21
146.30
158.37
169.50
176.99
178.91
174.34
163.43
147.29
127.62
106.24
84.64
63.69
43.59
24.01
4.32
-16.20
-38.34
-62.95
-90.79
-122.23
-156.85
-193.19
-228.96
-261.38
-287.80
-306.10
-315.02
-314.18
-304.38
-287.57
-266.73
-245.56
-227.36
-213.93
-204.87
-197.83
-189.55
-177.37
-159.98
-137.26
-109.86
-78.39
-43.34
-5.70
32.35
67.48
95.75
114.24
122.27
120.90
112.90
101.75
90.36
80.22
71.22
61.09
46.84
25.93
-4.63
-46.75
-100.41
-163.04
-229.43
-291.31
-340.32
-368.77
-371.83
-352.03
-317.37
-277.87
-241.38
-211.02
-184.21
-158.44
-132.64
-108.65
-93.78
-95.48
-116.41
-152.61
-195.41
-234.43
-265.43
-288.69
-288.69
-254.97
-186.31
-92.70
9.71
95.85
163.02
210.00
233.93
231.96
203.62
151.39
84.13
16.35
-35.15
-55.35
-39.96
4.87
65.17
122.20
160.98
176.96
176.28
172.28
179.22
202.68
239.13
278.92
310.18
324.88
321.93
304.57
278.73
250.43
221.56
191.06
156.76
116.62
70.55
21.44
-27.78
-72.52
-107.07
-127.80
-135.14
-133.97
-132.19
-137.84
-156.37
-192.56
-246.36
-312.63
-382.82
-447.86
-500.23
-535.00
-550.88
-530.70
-471.18
-383.93
-289.94
-207.21
-144.19
-100.95
-73.33
-56.43
-45.67
-40.05
-38.23
-39.37
-40.04
-38.49
-35.11
-31.22
-27.86
-25.11
-24.50
-26.24
-28.86
-29.65
-26.36
-20.13
-12.34
-4.29
3.35
9.09
12.59
14.81
17.73
22.76
30.19
39.64
50.13
60.64
69.79
77.10
83.24
89.84
98.35
109.45
123.01
138.10
153.48
167.86
180.72
192.51
204.36
217.58
233.31
252.73
276.65
304.94
335.71
364.83
386.48
394.76
385.92
359.92
320.66
274.22
226.44
181.03
139.14
100.39
64.51
32.26
5.27
-15.08
-28.75
-37.23
-42.90
-47.84
-53.23
-59.20
-65.28
-71.08
-76.54
-81.92
-87.52
-93.27
-98.58
-102.55
-104.33
-103.70
-101.30
-98.54
-96.99
-97.44
-99.41
-101.10
-100.43
-96.29
-89.68
-83.72
-82.48
-89.12
-104.16
-124.79
-145.56
-160.35
-164.55
-156.68
-138.84
-115.46
-91.43
-69.89
-51.07
-32.16
-8.58
24.30
69.37
126.32
190.90
255.24
309.44
344.36
354.85
342.07
313.59
280.65
253.60
237.71
231.35
227.26
216.60
193.48
157.88
115.83
77.29
52.82
50.21
72.08
114.98
170.03
225.40
269.72
295.37
300.42
288.33
265.73
239.58
214.97
194.62
179.61
170.53
167.90
171.70
180.58
191.37
199.64
201.22
193.67
177.08
153.76
127.30
100.94
76.38
53.28
29.61
2.62
-30.03
-69.39
-115.08
-165.55
-218.51
-271.21
-320.48
-362.90
-395.47
-416.56
-426.80
-428.95
-426.79
-423.28
-419.01
-412.14
-399.57
-378.87
-349.81
-314.93
-279.18
-248.53
-228.13
-220.44
-223.75
-231.85
-235.46
-225.34
-195.97
-148.13
-89.00
-29.41
20.25
53.63
69.69
71.79
65.33
55.60
46.33
39.25
34.30
29.90
23.72
13.61
-1.60
-21.47
-43.62
-63.97
-77.59
-79.88
-68.20
-43.23
-9.56
25.15
52.60
66.90
67.06
57.36
45.33
38.35
40.73
52.66
71.40
93.63
117.26
141.83
167.38
193.07
216.31
233.32
240.37
235.38
218.73
193.03
162.00
129.02
95.95
62.69
27.63
-11.57
-57.01
-109.67
-168.62
-230.41
-288.80
-335.45
-362.10
-363.96
-342.78
-307.75
-273.02
-252.05
-251.76
-269.41
-294.14
-312.08
-312.34
-290.65
-249.50
-195.71
-137.34
-81.93
-36.39
-7.36
-0.60
-18.82
-59.34
-113.01
-165.93
-203.55
-215.30
-197.99
-156.29
-100.35
-41.80
10.32
51.63
82.62
106.90
128.77
151.62
177.64
208.26
244.53
286.73
333.31
380.22
421.43
450.76
464.50
462.98
450.23
431.66
411.17
389.66
365.52
336.88
303.76
268.76
235.84
208.12
186.41
169.19
154.03
139.15
124.17
109.78
97.15
87.20
80.60
77.92
79.66
85.84
95.40
106.04
114.75
118.82
116.98
109.89
99.90
90.00
82.76
79.40
79.66
82.23
85.50
88.22
89.76
89.97
88.82
85.90
80.32
70.91
56.60
36.96
12.49
-15.45
-45.13
-75.12
-104.77
-134.37
-164.90
-197.51
-233.40
-273.85
-320.12
-372.83
-430.74
-489.58
-541.94
-578.98
-593.36
-582.21
-548.50
-499.91
-445.76
-393.66
-347.55
-307.92
-273.68
-244.05
-219.31
-200.17
-186.54
-176.84
-168.58
-159.99
-151.38
-145.34
-145.38
-153.52
-168.43
-185.22
-197.20
-198.75
-187.84
-166.72
-140.61
-115.04
-93.35
-75.63
-59.37
-41.32
-19.34
6.68
35.18
64.02
91.74
118.28
144.82
173.33
205.93
244.58
290.77
345.01
405.81
468.92
527.44
573.33
599.99
604.62
589.29
559.84
523.39
485.59
449.30
414.90
381.76
349.62
318.97
290.24
262.85
234.77
203.24
166.06
122.84
75.14
26.08
-21.21
-64.79
-104.62
-142.45
-181.14
-223.71
-272.54
-328.57
-390.70
-455.38
-516.79
-567.89
-602.30
-616.32
-610.27
-588.31
-556.88
-522.34
-489.23
-459.56
-433.52
-410.61
-390.57
-373.46
-359.13
-346.64
-334.23
-319.92
-302.36
-281.40
-258.25
-234.76
-212.67
-192.82
-174.85
-157.50
-139.28
-119.15
-97.04
-73.76
-50.65
-29.07
-9.56
8.33
25.79
44.26
64.74
87.42
111.70
136.51
160.69
183.62
205.46
226.91
248.96
272.64
298.85
328.25
360.74
394.64
426.99
454.00
471.96
478.46
473.46
459.25
440.00
419.80
400.64
383.08
366.94
351.65
336.85
322.45
308.40
295.15
282.68
269.36
254.46
238.89
223.85
210.27
198.34
187.47
178.26
171.34
165.31
160.10
157.29
157.91
161.83
167.67
173.13
177.55
180.64
179.84
175.05
169.23
165.43
165.68
170.27
166.34
145.18
121.19
101.18
81.87
62.86
43.28
21.18
-6.41
-42.72
-88.75
-145.00
-214.05
-295.58
-384.59
-473.29
-552.04
-611.68
-646.41
-654.63
-640.90
-616.28
-591.28
-571.39
-557.27
-545.63
-531.85
-512.72
-486.82
-455.18
-421.25
-387.35
-353.74
-320.11
-286.57
-254.15
-224.65
-199.17
-177.70
-159.53
-142.80
-125.09
-105.03
-82.68
-59.20
-36.17
-14.56
5.59
24.80
44.21
65.18
88.68
114.96
143.27
171.85
198.19
219.62
234.23
241.58
243.02
241.19
239.03
238.60
240.51
244.10
248.38
253.05
258.85
267.01
278.15
291.32
304.02
313.34
317.50
316.89
313.95
311.64
311.49
312.47
311.39
304.87
291.61
273.53
254.75
238.95
227.06
216.67
203.85
186.09
164.19
141.63
122.01
106.30
92.13
75.54
53.85
27.43
-0.84
-27.69
-51.49
-72.88
-93.50
-114.60
-136.56
-159.62
-184.91
-214.34
-249.22
-288.89
-330.61
-370.74
-406.70
-437.70
-463.70
-483.56
-493.92
-489.99
-468.05
-428.13
-375.26
-318.24
-266.52
-226.66
-200.02
-182.71
-167.69
-147.71
-118.02
-77.76
-30.09
18.97
62.29
93.46
108.43
106.83
92.30
71.97
54.52
47.63
55.22
76.23
105.16
134.59
158.27
173.23
180.14
181.72
180.53
177.33
170.98
159.88
143.62
123.95
104.36
88.46
78.12
72.71
69.63
65.83
59.54
51.09
42.72
37.46
37.83
44.84
57.95
75.70
96.38
118.54
140.94
162.23
180.76
194.82
203.32
206.58
206.49
206.00
207.75
212.65
218.97
222.63
218.52
202.49
173.07
132.16
84.70
37.36
-3.54
-33.71
-52.05
-60.68
-63.84
-66.12
-70.55
-77.70
-86.07
-93.52
-98.79
-102.10
-104.63
-107.23
-109.51
-110.20
-108.28
-104.17
-99.55
-95.90
-92.92
-88.02
-77.98
-61.71
-42.06
-25.10
-16.84
-19.72
-31.18
-45.06
-55.07
-57.51
-51.81
-38.96
-19.61
6.27
37.72
70.51
96.84
107.62
96.81
64.90
19.47
-28.00
-66.88
-91.60
-102.82
-105.86
-107.88
-115.26
-132.17
-159.96
-197.08
-239.16
-279.88
-312.66
-332.91
-339.64
-335.35
-324.05
-308.69
-289.62
-265.01
-232.89
-193.30
-148.80
-103.16
-58.93
-16.13
27.36
73.68
122.68
171.15
213.70
245.15
262.45
265.62
256.96
239.63
216.50
189.77
161.44
133.81
109.48
90.71
78.61
72.77
71.75
73.81
77.57
81.96
85.82
87.80
86.58
81.56
73.41
63.73
54.26
46.02
39.26
33.87
30.00
27.86
27.14
26.36
22.97
14.50
0.02
-19.32
-40.88
-62.05
-81.26
-97.71
-110.14
-116.00
-111.80
-95.14
-66.78
-31.38
3.93
32.46
50.78
59.68
62.88
64.70
67.77
72.10
76.01
77.56
75.93
71.79
66.74
62.30
59.25
57.38
56.00
54.53
53.00
51.96
52.10
53.70
56.34
59.01
60.58
60.23
57.78
53.57
48.11
41.80
34.76
26.92
18.33
9.27
0.34
-7.74
-14.31
-19.04
-22.00
-23.69
-24.91
-26.61
-29.66
-34.55
-41.17
-48.82
-56.31
-62.42
-66.30
-67.65
-66.86
-64.84
-62.72
-61.65
-62.42
-65.23
-69.43
-73.57
-75.75
-74.47
-69.30
-61.26
-52.41
-44.99
-40.36
-38.56
-38.38
-38.12
-36.19
-31.41
-22.92
-9.97
7.94
30.57
56.38
82.49
105.29
121.60
129.82
130.40
125.43
117.71
109.62
102.55
96.88
92.43
88.86
86.00
83.69
81.73
79.76
77.39
74.41
70.97
67.41
64.06
60.91
57.52
53.28
47.70
40.83
33.20
25.67
19.03
13.74
9.87
7.13
5.16
3.60
2.17
0.60
-1.29
-3.55
-5.94
-7.90
-8.75
-7.97
-5.51
-1.88
1.92
4.74
5.69
4.46
1.33
-2.98
-7.63
-11.93
-15.43
-17.95
-19.49
-20.25
-20.53
-20.76
-21.40
-22.74
-24.82
-27.29
-29.63
-31.35
-32.23
-32.38
-32.19
-32.06
-32.22
-32.67
-33.24
-33.74
-34.04
-34.10
-33.93
-33.51
-32.79
-31.79
-30.59
-29.32
-28.06
-26.70
-24.88
-22.18
-18.38
-13.82
-9.45
-6.65
-6.50
-9.15
-13.35
-16.74
-16.71
-11.53
-1.06
13.16
28.52
42.22
51.90
55.99
53.67
44.80
30.11
11.36
-8.79
-27.27
-41.54
-50.34
-53.93
-53.71
-51.47
-48.76
-46.60
-45.58
-45.96
-47.71
-50.41
-53.18
-54.76
-53.97
-50.11
-43.26
-34.31
-24.65
-15.70
-8.57
-3.71
-1.02
-0.11
-0.50
-1.81
-3.67
-5.65
-7.19
-7.80
-7.30
-5.94
-4.33
-3.20
-3.08
-4.19
-6.45
-9.62
-13.35
-17.23
-20.81
-23.71
-25.85
-27.58
-29.59
-32.61
-36.99
-42.56
-48.70
-54.78
-60.31
-65.19
-69.38
-72.65
-74.27
-73.03
-67.56
-56.92
-41.28
-22.27
-3.01
12.69
21.38
21.17
12.26
-3.14
-21.75
-40.38
-56.75
-69.88
-79.74
-86.77
-91.34
-93.61
-93.64
-91.61
-87.93
-83.19
-77.92
-72.36
-66.44
-59.96
-52.89
-45.72
-39.50
-35.55
-34.93
-37.83
-43.27
-49.25
-53.39
-53.71
-49.36
-40.81
-29.54
-17.47
-6.28
2.98
9.93
14.71
17.68
19.39
20.48
21.73
23.91
27.58
32.78
38.85
44.60
48.73
50.29
49.18
46.19
42.66
40.01
39.20
40.46
43.33
47.01
50.70
53.94
56.68
59.11
61.39
63.48
65.09
65.96
66.01
65.40
64.32
62.76
60.33
56.49
50.92
43.93
36.57
30.12
25.44
22.36
19.69
15.88
9.93
2.00
-6.68
-14.46
-20.28
-24.14
-26.88
-29.35
-31.64
-32.87
-31.69
-27.30
-20.06
-11.55
-3.83
1.53
4.04
4.28
3.25
1.67
-0.31
-2.88
-6.11
-9.57
-12.44
-14.02
-14.00
-12.72
-10.90
-9.28
-8.21
-7.71
-7.57
-7.63
-7.86
-8.07
-7.90
-6.90
-4.63
-0.87
4.24
10.33
16.94
23.69
30.92
39.00
47.92
57.07
65.32
71.54
75.14
76.37
76.14
76.92
80.86
89.06
100.99
114.62
127.40
137.27
143.36
145.92
148.14
153.33
163.75
179.48
198.43
217.30
233.12
244.35
251.13
257.93
270.28
293.37
330.19
380.53
441.02
506.15
569.48
607.00
599.70
537.75
426.35
284.75
137.39
3.93
-105.75
-190.31
-253.15
-295.87
-319.43
-324.93
-315.30
-295.80
-272.72
-251.29
-234.29
-222.43
-212.63
-201.38
-186.41
-167.74
-147.77
-129.74
-115.97
-106.97
-102.06
-98.33
-92.92
-84.17
-72.15
-58.44
-45.02
-33.15
-22.89
-13.95
-5.13
4.28
13.93
22.38
27.54
27.45
20.67
10.12
-2.40
-15.36
-28.15
-41.07
-54.99
-70.94
-89.75
-111.70
-136.27
-162.31
-187.12
-206.70
-216.65
-213.69
-197.07
-169.08
-134.45
-98.62
-66.40
-40.29
-20.69
-6.88
1.84
5.45
3.49
-4.24
-17.12
-33.96
-53.30
-74.35
-97.56
-124.43
-156.40
-193.22
-231.95
-267.13
-292.64
-304.06
-300.76
-286.34
-267.31
-250.49
-240.40
-237.73
-239.52
-240.59
-235.55
-220.70
-195.06
-160.53
-121.12
-81.56
-45.84
-16.11
7.73
27.50
45.72
64.76
86.22
110.91
138.85
169.22
200.26
229.29
253.05
268.58
274.11
269.68
257.12
239.45
219.78
200.48
182.68
166.23
150.29
133.88
116.27
97.19
76.69
55.11
32.85
10.37
-12.04
-34.30
-56.65
-79.58
-103.57
-128.62
-154.03
-178.43
-200.15
-217.81
-230.74
-239.08
-243.60
-245.27
-244.85
-242.69
-238.78
-233.09
-225.89
-218.00
-210.49
-204.11
-198.64
-192.50
-183.05
-167.58
-144.39
-113.56
-76.91
-37.25
2.79
41.58
78.73
114.91
151.16
188.45
227.23
267.17
307.10
345.04
378.34
404.09
419.61
422.99
413.62
392.53
362.39
327.30
292.07
261.30
238.41
224.91
220.27
222.35
228.24
235.16
241.09
244.93
246.40
245.64
242.82
237.77
229.89
218.18
201.58
179.33
151.24
117.67
79.35
37.12
-7.90
-54.01
-98.67
-138.80
-171.54
-195.12
-209.26
-214.79
-212.79
-203.84
-188.01
-165.62
-138.15
-108.61
-81.01
-59.14
-45.38
-40.17
-42.20
-49.19
-58.54
-67.90
-75.32
-79.50
-79.84
-76.57
-70.77
-64.10
-58.28
-54.50
-52.99
-53.01
-53.28
-52.74
-51.06
-48.83
-47.06
-46.54
-47.33
-48.74
-49.74
-49.48
-47.64
-44.34
-39.82
-34.30
-28.01
-21.40
-15.27
-10.55
-7.90
-7.46
-8.68
-10.64
-12.41
-13.40
-13.52
-13.06
-12.42
-11.99
-11.96
-12.35
-13.05
-13.97
-15.06
-16.42
-18.29
-20.99
-24.81
-29.73
-35.35
-40.81
-45.04
-47.09
-46.43
-43.13
-37.75
-31.07
-23.95
-17.10
-11.09
-6.42
-3.47
-2.41
-3.06
-4.85
-6.92
-8.39
-8.66
-7.55
-5.28
-2.25
1.11
4.55
7.93
11.10
13.84
15.81
16.71
16.44
15.20
13.52
12.00
11.04
10.72
10.68
10.32
8.98
6.22
1.90
-3.78
-10.24
-16.47
-21.11
-22.58
-19.54
-11.40
1.19
16.47
31.96
45.40
55.42
61.78
65.07
66.12
65.48
63.28
59.47
54.28
48.37
42.69
38.08
34.86
32.74
31.10
29.25
26.86
23.98
20.93
18.08
15.65
13.69
12.09
10.71
9.42
8.03
6.27
3.72
-0.09
-5.60
-12.99
-22.08
-32.27
-42.55
-51.73
-58.62
-62.30
-62.34
-58.90
-52.62
-44.48
-35.57
-26.82
-18.88
-12.07
-6.41
-1.83
1.71
4.18
5.47
5.54
4.57
2.99
1.37
0.24
-0.12
0.17
0.72
1.02
0.71
-0.29
-1.75
-3.35
-4.81
-6.16
-7.66
-9.72
-12.63
-16.36
-20.55
-24.67
-28.31
-31.36
-34.05
-36.66
-39.28
-41.52
-42.67
-41.99
-39.10
-34.20
-27.91
-21.07
-14.35
-8.18
-2.77
1.73
5.16
7.30
8.09
7.66
6.47
5.15
4.31
4.38
5.49
7.44
9.84
12.23
14.19
15.43
15.81
15.24
13.67
11.05
7.45
3.10
-1.58
-6.13
-10.17
-13.57
-16.51
-19.38
-22.61
-26.47
-30.91
-35.42
-39.16
-41.13
-40.53
-37.01
-30.84
-22.85
-14.15
-5.78
1.55
7.53
12.16
15.56
17.78
18.87
18.88
18.04
16.72
15.39
14.41
13.94
13.96
14.26
14.66
15.04
15.32
15.44
15.27
14.60
13.22
11.05
8.20
5.00
1.83
-0.94
-3.21
-5.08
-6.89
-9.09
-12.12
-16.24
-21.37
-27.00
-32.22
-35.86
-36.86
-34.60
-29.16
-21.31
-12.25
-3.26
4.67
11.01
15.61
18.60
20.17
20.51
19.90
18.70
17.38
16.39
16.06
16.41
17.19
17.99
18.42
18.30
17.66
16.67
15.48
14.15
12.55
10.52
7.99
5.05
1.99
-0.85
-3.16
-4.85
-6.06
-7.12
-8.49
-10.54
-13.46
-17.18
-21.34
-25.34
-28.44
-29.96
-29.41
-26.62
-21.83
-15.66
-8.93
-2.44
3.14
7.47
10.43
12.14
12.78
12.58
11.81
10.81
9.87
9.26
9.09
9.30
9.69
10.08
10.33
10.44
10.48
10.52
10.52
10.37
9.85
8.82
7.22
5.18
2.94
0.80
-1.01
-2.44
-3.58
-4.68
-6.00
-7.81
-10.24
-13.23
-16.52
-19.63
-21.87
-22.58
-21.32
-18.01
-12.99
-6.97
-0.79
4.83
9.40
12.70
14.71
15.53
15.32
14.33
12.87
11.35
10.11
9.39
9.20
9.34
9.53
9.53
9.21
8.64
7.93
7.12
6.17
4.96
3.41
1.54
-0.48
-2.41
-4.08
-5.46
-6.66
-7.87
-9.31
-11.20
-13.66
-16.71
-20.18
-23.69
-26.58
-28.09
-27.59
-24.79
-19.88
-13.57
-6.83
-0.65
4.28
7.63
9.41
9.88
9.37
8.25
6.84
5.44
4.31
3.62
3.49
3.91
4.74
5.79
6.81
7.56
7.83
7.48
6.41
4.66
2.38
-0.20
-2.79
-5.14
-7.13
-8.77
-10.18
-11.57
-13.18
-15.24
-17.85
-20.93
-24.15
-26.88
-28.38
-27.97
-25.35
-20.74
-14.84
-8.59
-2.83
1.90
5.46
7.91
9.42
10.03
9.77
8.69
7.03
5.20
3.64
2.76
2.65
3.17
3.96
4.70
5.23
5.52
5.73
5.91
6.05
5.96
5.39
4.19
2.42
0.34
-1.71
-3.38
-4.53
-5.25
-5.87
-6.84
-8.54
-11.14
-14.52
-18.22
-21.61
-23.99
-24.81
-23.79
-20.91
-16.52
-11.15
-5.42
0.07
4.84
8.55
11.06
12.37
12.63
12.09
11.10
10.03
9.18
8.75
8.71
8.89
9.05
8.97
8.59
8.01
7.41
6.95
6.63
6.32
5.75
4.70
3.09
1.03
-1.22
-3.39
-5.24
-6.70
-7.85
-8.86
-10.00
-11.52
-13.59
-16.26
-19.33
-22.34
-24.66
-25.60
-24.70
-21.84
-17.37
-11.95
-6.32
-1.07
3.50
7.28
10.29
12.47
13.69
13.85
12.98
11.41
9.65
8.25
7.64
7.91
8.87
10.07
11.07
11.55
11.40
10.72
9.71
8.53
7.28
5.94
4.41
2.67
0.74
-1.20
-2.96
-4.40
-5.47
-6.27
-6.99
-7.88
-9.20
-11.14
-13.76
-16.88
-20.05
-22.55
-23.63
-22.70
-19.61
-14.65
-8.53
-2.13
3.78
8.68
12.32
14.70
15.94
16.24
15.88
15.13
14.30
13.62
13.28
13.32
13.68
14.22
14.79
15.23
15.38
15.21
14.68
13.80
12.63
11.18
9.49
7.57
5.44
3.15
0.86
-1.28
-3.09
-4.52
-5.65
-6.74
-8.18
-10.30
-13.24
-16.80
-20.45
-23.43
-24.96
-24.49
-21.91
-17.53
-12.01
-6.11
-0.54
4.23
7.95
10.53
12.01
12.48
12.08
11.10
9.87
8.76
8.09
8.03
8.55
9.48
10.53
11.42
11.96
12.01
11.57
10.69
9.39
7.75
5.87
3.93
2.14
0.70
-0.32
-1.04
-1.75
-2.81
-4.53
-7.03
-10.22
-13.82
-17.37
-20.32
-22.15
-22.38
-20.77
-17.36
-12.48
-6.74
-0.86
4.49
8.81
11.82
13.41
13.67
12.74
10.79
8.03
4.68
1.05
-2.44
-5.27
-6.98
-7.27
-6.15
-4.01
-1.50
0.58
1.53
0.88
-1.41
-4.90
-8.73
-11.82
-13.08
-11.88
-8.20
-2.65
3.77
10.11
15.77
20.66
25.13
29.76
35.02
41.14
48.02
55.18
61.86
67.15
70.14
70.20
67.16
61.46
53.90
45.49
36.95
28.61
20.35
11.92
3.25
-5.35
-13.24
-19.81
-24.72
-28.17
-30.73
-33.05
-35.50
-38.12
-40.75
-43.27
-45.87
-48.96
-52.90
-57.68
-62.69
-66.91
-69.30
-69.31
-67.28
-64.36
-62.19
-62.27
-65.49
-71.70
-79.81
-88.05
-94.52
-97.66
-96.59
-91.27
-82.34
-70.98
-58.48
-46.08
-34.69
-24.93
-17.23
-11.93
-9.33
-9.60
-12.65
-17.95
-24.59
-31.53
-37.90
-43.47
-48.73
-54.70
-62.47
-72.62
-84.96
-98.61
-112.43
-125.55
-137.68
-149.19
-160.75
-173.11
-186.65
-201.30
-216.41
-230.82
-242.98
-251.13
-253.78
-250.12
-240.35
-225.90
-209.30
-193.61
-181.68
-175.29
-174.34
-176.77
-179.09
-177.52
-169.38
-153.97
-132.69
-108.24
-83.48
-60.40
-39.75
-21.29
-4.43
11.32
26.18
40.22
53.59
66.66
79.92
93.82
108.65
124.48
141.33
159.42
179.23
201.23
225.33
250.31
273.77
292.62
304.10
306.79
301.07
288.79
272.43
254.09
235.02
215.77
196.73
178.65
162.84
150.93
144.26
143.45
148.06
156.72
167.50
178.31
187.38
193.54
196.11
194.98
190.34
182.72
172.85
161.64
150.03
138.77
128.26
118.51
109.21
100.06
90.97
82.20
74.33
68.07
64.06
62.60
63.55
66.36
70.15
73.95
76.85
78.22
77.79
75.61
71.99
67.29
61.81
55.73
49.15
42.21
35.13
28.27
22.07
16.93
13.12
10.70
9.49
9.13
9.12
8.98
8.37
7.15
5.40
3.26
0.85
-1.82
-4.73
-7.81
-10.77
-13.21
-14.80
-15.50
-15.65
-15.84
-16.64
-18.32
-20.77
-23.59
-26.34
-28.75
-30.79
-32.54
-34.09
-35.39
-36.31
-36.78
-36.88
-36.86
-37.03
-37.57
-38.48
-39.59
-40.70
-41.67
-42.49
-43.12
-43.50
-43.47
-42.87
-41.63
-39.86
-37.80
-35.71
-33.75
-31.92
-30.14
-28.29
-26.36
-24.42
-22.60
-20.95
-19.48
-18.11
-16.78
-15.43
-14.03
-12.55
-10.93
-9.15
-7.23
-5.29
-3.53
-2.13
-1.21
-0.75
-0.60
-0.56
-0.43
-0.10
0.42
1.01
1.55
1.93
2.11
2.15
2.14
2.14
2.18
2.21
2.17
2.00
1.68
1.26
0.82
0.47
0.31
0.39
0.66
1.01
1.24
1.20
0.83
0.21
-0.51
-1.17
-1.61
-1.74
-1.53
-0.97
-0.09
1.02
2.18
3.21
3.97
4.40
4.56
4.50
4.28
3.91
3.38
2.74
2.10
1.58
1.26
1.10
1.02
0.90
0.66
0.29
-0.22
-0.87
-1.63
-2.48
-3.36
-4.21
-4.95
-5.60
-6.24
-6.93
-7.72
-8.52
-9.20
-9.59
-9.63
-9.40
-9.16
-9.17
-9.63
-10.58
-11.84
-13.08
-13.91
-14.04
-13.32
-11.80
-9.68
-7.17
-4.51
-1.84
0.71
3.09
5.24
7.14
8.73
9.98
10.86
11.34
11.47
11.36
11.18
11.14
11.38
11.89
12.53
13.07
13.29
13.11
12.58
11.90
11.20
10.58
9.95
9.15
8.06
6.64
4.96
3.19
1.43
-0.29
-1.98
-3.74
-5.59
-7.53
-9.47
-11.37
-13.19
-14.90
-16.45
-17.71
-18.44
-18.38
-17.37
-15.42
-12.76
-9.71
-6.66
-3.84
-1.36
0.83
2.80
4.57
6.06
7.16
7.79
7.99
7.91
7.74
7.66
7.71
7.84
7.90
7.79
7.40
6.68
5.56
4.02
2.07
-0.18
-2.52
-4.72
-6.56
-7.98
-9.02
-9.79
-10.42
-10.96
-11.42
-11.78
-12.10
-12.46
-12.98
-13.78
-14.88
-16.19
-17.53
-18.59
-19.07
-18.74
-17.46
-15.27
-12.34
-8.91
-5.26
-1.69
1.55
4.20
6.03
6.89
6.77
5.85
4.46
3.03
1.93
1.35
1.31
1.61
1.97
2.12
1.88
1.18
0.15
-0.98
-1.90
-2.40
-2.36
-1.80
-0.90
0.20
1.41
2.82
4.59
6.89
9.69
12.66
15.24
16.75
16.61
14.49
10.46
4.94
-1.35
-7.57
-12.91
-16.74
-18.66
-18.59
-16.72
-13.53
-9.70
-5.94
-2.89
-0.95
-0.19
-0.42
-1.32
-2.55
-3.82
-4.96
-5.80
-6.24
-6.17
-5.56
-4.49
-3.11
-1.61
-0.17
1.10
2.09
2.70
2.79
2.25
1.00
-0.87
-3.11
-5.38
-7.35
-8.83
-9.84
-10.59
-11.42
-12.57
-14.12
-16.02
-18.07
-20.06
-21.79
-22.98
-23.33
-22.51
-20.33
-16.85
-12.43
-7.64
-3.04
0.97
4.32
7.10
9.45
11.41
12.95
14.05
14.85
15.62
16.72
18.35
20.44
22.62
24.32
25.01
24.42
22.65
20.09
17.25
14.56
12.28
10.46
8.99
7.74
6.56
5.32
3.89
2.17
0.04
-2.62
-5.83
-9.54
-13.57
-17.68
-21.56
-24.93
-27.58
-29.40
-30.39
-30.64
-30.22
-29.17
-27.52
-25.36
-22.82
-20.12
-17.48
-15.06
-12.92
-11.04
-9.35
-7.84
-6.49
-5.33
-4.35
-3.51
-2.71
-1.85
-0.84
0.35
1.70
3.11
4.47
5.64
6.53
7.06
7.19
6.85
5.96
4.51
2.58
0.39
-1.75
-3.58
-5.00
-6.12
-7.20
-8.48
-10.11
-12.16
-14.63
-17.52
-20.76
-24.08
-26.93
-28.57
-28.33
-25.86
-21.34
-15.49
-9.24
-3.41
1.54
5.55
8.78
11.42
13.50
14.92
15.57
15.49
14.93
14.29
13.99
14.25
15.04
16.08
16.97
17.35
17.07
16.20
14.96
13.62
12.35
11.16
9.90
8.35
6.33
3.83
1.00
-1.87
-4.51
-6.78
-8.73
-10.53
-12.34
-14.32
-16.57
-19.17
-22.18
-25.58
-29.11
-32.19
-34.04
-33.89
-31.35
-26.60
-20.37
-13.61
-7.16
-1.44
3.51
7.85
11.67
14.80
16.92
17.83
17.58
16.57
15.40
14.59
14.37
14.65
15.14
15.54
15.68
15.57
15.37
15.18
15.05
14.93
14.63
13.98
12.83
11.15
9.01
6.56
4.02
1.50
-0.91
-3.26
-5.57
-7.93
-10.35
-12.94
-15.80
-19.08
-22.80
-26.72
-30.24
-32.52
-32.71
-30.31
-25.36
-18.48
-10.63
-2.78
4.36
10.44
15.38
19.22
21.96
23.61
24.24
24.07
23.54
23.13
23.20
23.85
24.84
25.77
26.23
25.97
24.98
23.46
21.65
19.75
17.90
16.11
14.34
12.53
10.58
8.38
5.88
3.10
0.18
-2.67
-5.28
-7.60
-9.75
-11.96
-14.55
-17.71
-21.40
-25.27
-28.66
-30.80
-31.01
-28.93
-24.69
-18.83
-12.11
-5.30
1.07
6.66
11.34
15.02
17.59
18.98
19.26
18.67
17.63
16.61
15.98
15.86
16.14
16.50
16.59
16.18
15.27
14.07
12.84
11.78
10.88
9.95
8.72
6.98
4.72
2.15
-0.40
-2.62
-4.40
-5.82
-7.21
-8.94
-11.35
-14.51
-18.26
-22.09
-25.32
-27.22
-27.21
-25.06
-20.92
-15.27
-8.81
-2.24
3.82
8.95
12.91
15.61
17.09
17.53
17.16
16.30
15.24
14.24
13.44
12.92
12.64
12.50
12.33
11.96
11.24
10.08
8.50
6.53
4.21
1.62
-1.17
-4.05
-6.90
-9.59
-12.09
-14.39
-16.59
-18.81
-21.20
-23.92
-27.13
-30.95
-35.34
-39.99
-44.28
-47.43
-48.68
-47.59
-44.21
-39.04
-32.78
-26.16
-19.65
-13.55
-8.09
-3.57
-0.35
1.27
1.34
0.36
-0.75
-1.00
0.31
3.36
7.74
12.71
17.48
21.49
24.49
26.49
27.60
27.95
27.59
26.56
24.86
22.51
19.58
16.28
12.89
9.75
7.11
5.03
3.35
1.77
-0.08
-2.46
-5.52
-9.20
-13.32
-17.55
-21.37
-24.13
-25.18
-24.08
-20.81
-15.80
-9.82
-3.68
2.07
7.16
11.59
15.42
18.64
21.13
22.75
23.48
23.44
22.91
22.14
21.35
20.59
19.82
18.90
17.72
16.23
14.45
12.48
10.42
8.40
6.46
4.57
2.67
0.70
-1.29
-3.22
-4.95
-6.45
-7.79
-9.17
-10.80
-12.85
-15.37
-18.22
-21.16
-23.82
-25.82
-26.79
-26.45
-24.67
-21.53
-17.27
-12.31
-7.02
-1.74
3.34
8.11
12.49
16.32
19.39
21.55
22.72
23.04
22.79
22.25
21.62
20.92
20.06
18.91
17.48
15.85
14.21
12.70
11.30
9.93
8.38
6.48
4.13
1.33
-1.79
-5.11
-8.47
-11.77
-14.95
-17.99
-20.94
-23.88
-26.95
-30.22
-33.59
-36.70
-38.91
-39.52
-37.98
-34.17
-28.43
-21.47
-14.12
-7.11
-0.90
4.22
8.09
10.68
12.05
12.45
12.32
12.24
12.66
13.82
15.64
17.80
19.92
21.69
22.97
23.74
23.98
23.66
22.67
20.95
18.58
15.84
13.08
10.57
8.32
5.99
3.08
-0.87
-6.02
-12.16
-18.85
-25.66
-32.31
-38.65
-44.55
-49.65
-53.36
-54.98
-54.03
-50.51
-45.03
-38.61
-32.28
-26.81
-22.47
-19.16
-16.64
-14.75
-13.47
-12.85
-12.85
-13.17
-13.29
-12.59
-10.61
-7.22
-2.65
2.60
7.86
12.52
16.12
18.43
19.40
19.27
18.45
17.50
17.00
17.42
18.99
21.68
25.25
29.29
33.35
36.94
39.62
41.03
40.95
39.40
36.68
33.33
29.98
27.19
25.29
24.32
24.14
24.50
25.13
25.83
26.50
27.05
27.39
27.42
27.01
26.09
24.64
22.79
20.79
18.85
17.15
15.63
14.10
12.29
10.03
7.37
4.58
1.98
-0.21
-1.99
-3.59
-5.30
-7.31
-9.63
-12.06
-14.34
-16.26
-17.81
-19.15
-20.60
-22.47
-24.99
-28.17
-31.77
-35.30
-38.09
-39.48
-38.93
-36.22
-31.48
-25.17
-17.95
-10.53
-3.48
2.81
8.20
12.72
16.40
19.27
21.30
22.45
22.77
22.42
21.69
20.87
20.16
19.61
19.18
18.77
18.36
17.92
17.44
16.81
15.87
14.44
12.53
10.28
8.00
5.93
4.19
2.67
1.12
-0.65
-2.68
-4.81
-6.80
-8.55
-10.14
-11.81
-13.88
-16.51
-19.69
-23.26
-26.99
-30.66
-34.02
-36.62
-37.88
-37.14
-33.97
-28.44
-21.21
-13.32
-5.86
0.41
5.30
9.03
12.04
14.70
17.19
19.45
21.41
23.02
24.33
25.40
26.21
26.69
26.69
26.13
25.01
23.50
21.79
20.09
18.51
17.08
15.75
14.50
13.32
12.21
11.11
9.91
8.48
6.66
4.40
1.75
-1.14
-4.03
-6.69
-8.96
-10.76
-12.16
-13.36
-14.65
-16.32
-18.55
-21.37
-24.50
-27.44
-29.55
-30.18
-28.90
-25.66
-20.79
-14.93
-8.85
-3.24
1.45
5.08
7.66
9.37
10.33
10.64
10.39
9.68
8.67
7.59
6.66
6.03
5.73
5.68
5.75
5.83
5.84
5.75
5.55
5.16
4.53
3.59
2.37
0.95
-0.54
-2.00
-3.36
-4.63
-5.87
-7.13
-8.42
-9.72
-11.01
-12.27
-13.51
-14.75
-16.04
-17.51
-19.28
-21.45
-23.97
-26.56
-28.72
-29.80
-29.23
-26.74
-22.53
-17.14
-11.36
-5.90
-1.20
2.61
5.59
7.88
9.51
10.49
10.81
10.56
9.98
9.34
8.90
8.79
8.98
9.31
9.57
9.61
9.33
8.74
7.93
7.02
6.11
5.26
4.43
3.53
2.45
1.14
-0.33
-1.79
-3.03
-3.99
-4.69
-5.29
-6.00
-6.96
-8.26
-9.95
-12.02
-14.32
-16.53
-18.10
-18.42
-17.02
-13.82
-9.20
-3.91
1.24
5.64
9.03
11.44
13.02
13.84
13.91
13.20
11.82
10.08
8.45
7.36
7.03
7.37
8.03
8.59
8.73
8.42
7.82
7.22
6.78
6.48
6.12
5.45
4.35
2.87
1.21
-0.41
-1.87
-3.22
-4.59
-6.14
-7.95
-10.09
-12.55
-15.33
-18.28
-21.04
-23.08
-23.75
-22.63
-19.68
-15.35
-10.39
-5.61
-1.54
1.62
3.91
5.46
6.34
6.56
6.17
5.39
4.57
4.13
4.30
5.04
6.04
6.79
6.88
6.16
4.75
3.01
1.37
0.15
-0.55
-0.78
-0.72
-0.62
-0.68
-1.09
-1.96
-3.33
-5.13
-7.26
-9.51
-11.76
-13.96
-16.17
-18.47
-20.91
-23.29
-25.22
-26.19
-25.70
-23.55
-19.90
-15.25
-10.26
-5.49
-1.30
2.15
4.81
6.65
7.63
7.74
7.18
6.24
5.32
4.71
4.50
4.58
4.73
4.73
4.47
3.96
3.34
2.75
2.30
2.00
1.69
1.15
0.15
-1.39
-3.35
-5.41
-7.24
-8.61
-9.53
-10.23
-11.09
-12.46
-14.51
-17.26
-20.41
-23.50
-25.91
-27.03
-26.45
-24.07
-20.15
-15.20
-9.84
-4.61
0.13
4.18
7.43
9.84
11.42
12.26
12.55
12.52
12.43
12.45
12.58
12.75
12.85
12.82
12.67
12.45
12.22
11.92
11.47
10.77
9.82
8.63
7.26
5.73
4.00
2.02
-0.20
-2.55
-4.85
-6.90
-8.68
-10.37
-12.30
-14.82
-18.12
-22.06
-26.20
-29.87
-32.34
-33.03
-31.69
-28.41
-23.61
-17.93
-11.99
-6.29
-1.11
3.44
7.36
10.58
12.99
14.47
15.01
14.79
14.12
13.45
13.11
13.27
13.92
14.88
15.92
16.81
17.39
17.55
17.29
16.66
15.70
14.47
12.97
11.19
9.14
6.85
4.40
1.90
-0.53
-2.79
-4.83
-6.66
-8.34
-9.98
-11.71
-13.68
-16.01
-18.84
-22.21
-25.98
-29.81
-33.01
-34.82
-34.52
-31.77
-26.80
-20.32
-13.27
-6.50
-0.54
4.43
8.45
11.62
13.99
15.61
16.57
17.06
17.35
17.65
18.08
18.59
19.07
19.37
19.37
19.05
18.48
17.78
17.09
16.50
16.01
15.55
14.96
14.10
12.86
11.22
9.26
7.10
4.86
2.61
0.41
-1.75
-3.93
-6.13
-8.37
-10.63
-12.89
-15.19
-17.61
-20.30
-23.36
-26.69
-29.93
-32.48
-33.65
-32.88
-30.02
-25.34
-19.50
-13.31
-7.45
-2.27
2.20
6.16
9.80
13.12
15.93
17.97
19.12
19.50
19.45
19.40
19.63
20.17
20.89
21.57
22.10
22.45
22.68
22.77
22.54
21.77
20.29
18.13
15.56
12.98
10.74
9.06
7.89
6.97
5.98
4.60
2.67
0.23
-2.53
-5.27
-7.73
-9.75
-11.36
-12.79
-14.38
-16.46
-19.24
-22.71
-26.60
-30.40
-33.45
-35.09
-34.82
-32.42
-28.10
-22.41
-16.11
-9.92
-4.32
0.58
4.86
8.71
12.18
15.14
17.37
18.71
19.23
19.23
19.09
19.15
19.54
20.16
20.82
21.34
21.68
21.91
22.15
22.44
22.66
22.61
22.06
20.88
19.12
16.98
14.73
12.58
10.64
8.84
7.05
5.11
2.94
0.50
-2.15
-4.91
-7.63
-10.16
-12.38
-14.27
-15.95
-17.68
-19.82
-22.68
-26.37
-30.62
-34.79
-38.01
-39.43
-38.47
-35.09
-29.70
-23.08
-16.07
-9.35
-3.27
2.03
6.62
10.55
13.80
16.32
18.08
19.14
19.68
19.96
20.21
20.53
20.89
21.14
21.20
21.06
20.90
20.85
20.95
21.02
20.73
19.82
18.19
16.07
13.83
11.89
10.48
9.54
8.82
7.94
6.66
4.88
2.69
0.26
-2.25
-4.70
-7.01
-9.16
-11.14
-13.03
-14.97
-17.17
-19.80
-22.90
-26.25
-29.39
-31.67
-32.47
-31.34
-28.22
-23.44
-17.58
-11.36
-5.41
-0.09
4.43
8.21
11.28
13.63
15.23
16.04
16.17
15.87
15.50
15.32
15.44
15.79
16.17
16.36
16.30
16.05
15.73
15.41
15.09
14.65
13.93
12.87
11.47
9.88
8.27
6.82
5.62
4.68
3.89
3.03
1.89
0.32
-1.69
-4.02
-6.43
-8.69
-10.66
-12.40
-14.09
-15.99
-18.31
-21.15
-24.45
-28.08
-31.73
-34.98
-37.24
-37.93
-36.63
-33.24
-28.12
-21.95
-15.53
-9.49
-4.16
0.44
4.46
8.00
11.06
13.51
15.16
15.97
16.07
15.81
15.62
15.78
16.41
17.36
18.35
19.14
19.63
19.91
20.08
20.22
20.26
20.00
19.28
18.05
16.41
14.56
12.72
10.98
9.35
7.70
5.87
3.73
1.26
-1.44
-4.22
-6.89
-9.31
-11.44
-13.38
-15.23
-17.13
-19.24
-21.66
-24.49
-27.74
-31.31
-34.84
-37.79
-39.48
-39.27
-36.83
-32.30
-26.23
-19.47
-12.79
-6.71
-1.37
3.33
7.50
11.15
14.11
16.19
17.33
17.69
17.66
17.63
17.85
18.35
18.94
19.37
19.49
19.29
18.90
18.50
18.17
17.89
17.49
16.85
15.89
14.63
13.13
11.50
9.81
8.13
6.52
4.99
3.54
2.08
0.48
-1.36
-3.47
-5.78
-8.13
-10.33
-12.29
-14.00
-15.64
-17.45
-19.71
-22.63
-26.24
-30.30
-34.24
-37.28
-38.63
-37.75
-34.57
-29.52
-23.34
-16.88
-10.77
-5.32
-0.56
3.63
7.30
10.37
12.75
14.40
15.46
16.19
16.85
17.58
18.38
19.12
19.73
20.19
20.61
21.05
21.56
22.01
22.29
22.26
21.80
20.85
19.38
17.43
15.20
12.99
11.12
9.78
8.90
8.21
7.35
6.06
4.31
2.31
0.37
-1.24
-2.40
-3.14
-3.67
-4.26
-5.26
-6.97
-9.55
-12.86
-16.31
-18.89
-19.30
-16.39
-9.57
0.88
13.86
27.78
41.04
52.62
62.19
70.07
76.85
83.08
89.03
94.73
100.08
104.94
109.14
112.43
114.45
114.83
113.31
109.81
104.35
96.91
87.16
74.65
59.01
40.34
19.39
-2.48
-23.78
-43.33
-60.54
-75.39
-88.10
-98.86
-107.73
-114.77
-120.25
-124.76
-129.09
-133.91
-139.53
-145.86
-152.49
-158.96
-164.97
-170.33
-175.03
-179.10
-182.62
-185.68
-188.13
-189.26
-187.63
-181.10
-167.45
-145.28
-114.89
-78.62
-40.37
-4.55
25.32
47.55
62.36
71.31
76.31
78.89
79.87
79.63
78.51
77.09
76.08
76.04
77.03
78.55
79.80
80.13
79.25
77.40
75.02
72.49
69.89
66.96
63.31
58.63
52.91
46.42
39.64
33.04
26.98
21.57
16.77
12.40
8.29
4.29
0.27
-3.80
-7.97
-12.25
-16.69
-21.27
-25.85
-30.09
-33.43
-35.19
-34.83
-32.12
-27.26
-20.87
-13.77
-6.76
-0.41
4.94
9.15
12.14
13.90
14.43
13.87
12.55
10.94
9.58
8.86
8.87
9.35
9.78
9.63
8.61
6.84
4.80
3.15
2.36
2.59
3.58
4.82
5.76
6.02
5.48
4.24
2.52
0.52
-1.66
-4.09
-6.89
-10.23
-14.20
-18.76
-23.77
-29.00
-34.12
-38.66
-42.10
-43.80
-43.21
-40.00
-34.21
-26.29
-17.07
-7.49
1.54
9.38
15.67
20.33
23.46
25.24
25.93
25.81
25.22
24.54
24.09
24.11
24.61
25.42
26.27
26.91
27.19
27.10
26.63
25.78
24.47
22.62
20.23
17.42
14.40
11.36
8.37
5.39
2.28
-1.11
-4.84
-8.93
-13.34
-18.01
-22.79
-27.39
-31.31
-33.96
-34.74
-33.30
-29.64
-24.16
-17.51
-10.44
-3.62
2.45
7.45
11.22
13.74
15.15
15.71
15.77
15.68
15.68
15.91
16.36
16.94
17.49
17.81
17.70
16.99
15.64
13.70
11.32
8.67
5.87
2.96
-0.09
-3.31
-6.66
-10.05
-13.34
-16.47
-19.53
-22.70
-26.18
-30.08
-34.24
-38.22
-41.37
-43.00
-42.54
-39.76
-34.77
-28.03
-20.21
-11.99
-3.96
3.40
9.77
14.87
18.51
20.59
21.16
20.51
19.12
17.54
16.26
15.53
15.35
15.55
15.86
15.94
15.54
14.48
12.71
10.30
7.49
4.56
1.77
-0.74
-3.00
-5.20
-7.59
-10.41
-13.82
-17.89
-22.53
-27.48
-32.23
-36.04
-38.09
-37.75
-34.71
-29.20
-21.90
-13.77
-5.72
1.54
7.68
12.64
16.48
19.26
20.98
21.65
21.41
20.56
19.54
18.79
18.58
18.92
19.59
20.27
20.71
20.84
20.72
20.39
19.73
18.50
16.38
13.24
9.22
4.69
0.15
-4.02
-7.68
-10.94
-14.10
-17.55
-21.59
-26.30
-31.44
-36.40
-40.30
-42.12
-41.11
-36.97
-30.06
-21.24
-11.65
-2.32
6.03
13.09
18.82
23.30
26.61
28.73
29.69
29.60
28.79
27.71
26.84
26.53
26.80
27.38
27.84
27.77
27.03
25.71
24.12
22.59
21.22
19.86
18.20
15.91
12.85
9.19
5.26
1.46
-1.97
-4.99
-7.77
-10.59
-13.70
-17.27
-21.45
-26.27
-31.62
-37.09
-41.97
-45.26
-46.04
-43.66
-38.11
-29.96
-20.22
-10.03
-0.29
8.43
15.80
21.67
25.93
28.53
29.57
29.36
28.42
27.32
26.55
26.34
26.59
27.05
27.38
27.37
26.95
26.19
25.20
24.01
22.57
20.76
18.52
15.85
12.87
9.75
6.62
3.58
0.60
-2.38
-5.48
-8.89
-12.78
-17.37
-22.69
-28.49
-34.18
-38.84
-41.51
-41.38
-38.18
-32.19
-24.17
-15.10
-5.92
2.72
10.37
16.77
21.75
25.22
27.16
27.79
27.47
26.68
25.86
25.35
25.26
25.56
26.06
26.52
26.66
26.30
25.33
23.81
21.92
19.89
17.93
16.06
14.19
12.10
9.65
6.83
3.82
0.85
-1.89
-4.43
-6.99
-9.91
-13.49
-17.87
-23.00
-28.74
-34.79
-40.71
-45.90
-49.55
-50.87
-49.24
-44.52
-37.09
-27.80
-17.73
-7.88
1.04
8.69
14.98
19.98
23.74
26.32
27.78
28.27
28.07
27.53
27.04
26.86
27.06
27.49
27.94
28.19
28.10
27.70
27.06
26.24
25.24
23.97
22.33
20.30
17.93
15.35
12.78
10.30
7.94
5.56
3.03
0.26
-2.73
-5.79
-8.74
-11.51
-14.21
-17.11
-20.58
-24.89
-30.10
-35.93
-41.78
-46.77
-49.97
-50.52
-47.95
-42.24
-33.93
-23.98
-13.48
-3.35
5.80
13.77
20.56
26.25
30.80
34.11
36.09
36.82
36.56
35.74
34.73
33.75
32.83
31.86
30.71
29.36
27.83
26.19
24.50
22.75
20.87
18.76
16.34
13.58
10.62
7.65
4.98
2.85
1.32
0.22
-0.87
-2.42
-4.77
-7.98
-11.75
-15.54
-18.85
-21.40
-23.30
-24.96
-26.93
-29.69
-33.48
-38.27
-43.78
-49.54
-54.88
-59.04
-61.23
-60.85
-57.65
-51.80
-43.88
-34.67
-25.02
-15.68
-7.34
-0.63
3.96
6.17
6.20
4.67
2.54
0.76
-0.08
0.04
0.60
0.76
-0.26
-2.78
-6.48
-10.28
-12.59
-11.73
-6.46
3.50
17.17
32.38
46.22
55.87
59.49
56.77
48.98
38.34
27.06
16.38
6.21
-4.56
-17.30
-32.64
-50.06
-67.96
-84.41
-97.92
-107.93
-114.74
-119.01
-121.18
-121.16
-118.45
-112.62
-103.67
-92.28
-79.49
-66.29
-53.14
-39.90
-26.05
-11.12
4.89
21.43
37.45
51.75
63.33
71.64
76.69
79.08
79.76
79.84
80.25
81.49
83.53
85.93
88.09
89.59
90.34
90.53
90.48
90.40
90.30
90.05
89.55
88.75
87.74
86.58
85.26
83.57
81.24
78.00
73.70
68.31
61.91
54.65
46.72
38.38
29.93
21.69
13.91
6.68
-0.01
-6.23
-12.03
-17.32
-21.92
-25.57
-28.03
-29.06
-28.49
-26.18
-22.16
-16.62
-9.99
-2.88
4.07
10.33
15.58
19.75
22.89
25.08
26.33
26.61
25.85
24.11
21.48
18.11
14.09
9.45
4.24
-1.33
-6.82
-11.69
-15.41
-17.75
-18.81
-18.93
-18.47
-17.59
-16.20
-14.07
-11.04
-7.13
-2.59
2.26
7.01
11.33
14.86
17.29
18.41
18.22
16.98
15.14
13.23
11.65
10.47
9.50
8.29
6.35
3.40
-0.49
-4.89
-9.02
-12.01
-13.21
-12.45
-10.21
-7.49
-5.48
-5.14
-6.77
-9.91
-13.58
-16.70
-18.56
-19.12
-18.94
-18.74
-19.02
-19.79
-20.59
-20.84
-20.11
-18.40
-15.99
-13.32
-10.66
-8.11
-5.61
-3.17
-0.90
0.91
1.89
1.71
0.17
-2.76
-6.94
-12.13
-18.00
-24.23
-30.56
-36.88
-43.20
-49.61
-56.29
-63.42
-71.23
-79.94
-89.66
-100.21
-110.88
-120.35
-126.85
-128.60
-124.30
-113.58
-97.06
-76.17
-52.71
-28.40
-4.72
17.19
36.41
52.20
64.02
71.66
75.35
75.77
73.86
70.57
66.67
62.60
58.57
54.66
50.96
47.61
44.80
42.61
40.97
39.71
38.62
37.58
36.64
35.93
35.53
35.36
35.17
34.59
33.28
31.17
28.44
25.50
22.83
20.76
19.38
18.45
17.56
16.27
14.39
12.03
9.71
8.13
7.96
9.51
12.58
16.34
19.48
20.46
17.89
10.92
-0.53
-15.73
-33.31
-51.67
-69.32
-85.16
-98.51
-109.00
-116.35
-120.27
-120.56
-117.24
-110.71
-101.70
-90.95
-79.00
-66.05
-52.10
-37.27
-22.05
-7.44
5.34
15.20
21.64
24.89
25.72
25.13
23.89
22.40
20.62
18.35
15.41
11.92
8.33
5.33
3.76
4.25
7.16
12.47
19.80
28.56
38.16
48.09
58.06
67.86
77.31
86.08
93.64
99.39
102.86
103.88
102.75
100.10
96.71
93.22
89.90
86.51
82.43
76.69
68.20
55.98
39.44
18.61
-5.73
-32.04
-58.31
-82.46
-102.75
-118.05
-127.90
-132.43
-132.23
-128.13
-121.21
-112.64
-103.55
-94.96
-87.58
-81.74
-77.38
-74.10
-71.26
-68.09
-63.90
-58.24
-50.91
-42.07
-32.07
-21.38
-10.50
0.04
9.68
17.83
23.99
27.87
29.60
29.77
29.27
29.02
29.63
31.24
33.49
35.74
37.38
38.01
37.58
36.36
34.73
33.10
31.72
30.62
29.56
27.99
25.09
19.92
11.69
0.05
-14.77
-31.95
-50.34
-68.77
-86.40
-102.83
-118.03
-132.10
-144.96
-156.14
-164.81
-169.99
-170.99
-167.81
-161.18
-152.34
-142.47
-132.03
-120.51
-106.75
-89.67
-68.96
-45.40
-20.66
3.39
25.16
43.68
58.61
70.12
78.77
85.42
91.10
96.64
102.40
108.05
112.73
115.52
115.89
113.97
110.42
106.16
101.94
98.27
95.36
93.18
91.51
89.82
87.43
83.88
79.30
74.66
71.53
71.37
74.70
80.66
87.06
91.14
90.51
83.86
71.13
53.31
31.99
9.05
-13.45
-33.42
-48.90
-58.50
-61.83
-59.61
-53.45
-45.34
-37.03
-29.65
-23.60
-18.69
-14.55
-10.84
-7.47
-4.58
-2.45
-1.30
-1.18
-1.97
-3.41
-5.09
-6.64
-7.69
-7.97
-7.40
-6.14
-4.58
-3.31
-2.94
-3.95
-6.51
-10.40
-15.04
-19.60
-23.17
-25.07
-25.01
-23.12
-19.93
-16.03
-11.91
-7.84
-3.88
-0.05
3.54
6.69
9.26
11.28
13.05
14.96
17.34
20.23
23.49
26.89
30.33
33.88
37.63
41.48
45.07
47.86
49.43
49.72
49.07
47.95
46.64
44.95
42.30
38.03
31.82
23.88
14.87
5.62
-3.23
-11.35
-18.68
-25.17
-30.63
-34.70
-37.05
-37.61
-36.81
-35.48
-34.47
-34.12
-33.88
-32.46
-28.44
-21.23
-11.60
-1.53
6.65
11.48
13.04
12.83
13.04
15.45
20.81
28.79
38.44
48.61
58.21
66.17
71.45
73.17
70.93
65.08
56.61
46.76
36.62
26.72
17.06
7.21
-3.38
-15.16
-28.12
-41.58
-54.08
-63.63
-68.40
-67.54
-61.78
-53.47
-45.85
-42.02
-43.78
-51.28
-63.15
-77.29
-91.68
-104.83
-115.83
-124.16
-129.43
-131.45
-130.33
-126.62
-121.25
-115.15
-108.79
-101.78
-93.01
-81.20
-65.64
-46.76
-26.16
-5.98
11.85
26.36
37.68
46.64
54.22
61.02
67.17
72.58
77.26
81.45
85.48
89.59
93.66
97.30
100.06
101.70
102.35
102.46
102.56
102.96
103.53
103.71
102.74
100.07
95.69
90.23
84.76
80.30
77.34
75.76
74.84
73.69
71.54
67.96
62.80
56.17
48.35
39.87
31.53
24.29
19.02
16.22
15.82
17.21
19.55
22.04
24.11
25.42
25.81
25.14
23.29
20.20
15.97
10.99
5.98
1.85
-0.48
-0.46
1.90
5.85
10.18
13.62
15.33
15.15
13.48
10.93
7.91
4.47
0.40
-4.39
-9.74
-15.41
-21.42
-28.28
-36.84
-47.62
-60.18
-72.87
-83.42
-89.92
-91.87
-90.49
-88.15
-87.32
-89.52
-94.89
-102.51
-111.17
-119.93
-128.31
-135.98
-142.39
-146.68
-147.88
-145.37
-139.16
-129.98
-119.08
-107.78
-97.18
-87.87
-79.94
-72.99
-66.37
-59.43
-51.87
-43.89
-36.12
-29.25
-23.57
-18.61
-13.30
-6.44
2.72
14.02
26.44
38.53
48.92
56.78
61.92
64.65
65.59
65.50
65.11
64.96
65.32
65.92
66.08
64.90
61.70
56.36
49.43
41.94
35.00
29.40
25.46
23.13
22.11
22.14
22.98
24.41
26.10
27.65
28.61
28.57
27.41
25.27
22.64
20.15
18.45
18.06
19.21
21.79
25.41
29.52
33.56
37.05
39.72
41.39
42.05
41.77
40.69
38.99
36.87
34.54
32.11
29.66
27.24
24.89
22.74
20.93
19.63
18.96
18.90
19.34
20.09
20.89
21.44
21.46
20.69
18.97
16.36
13.15
9.76
6.62
3.96
1.77
-0.09
-1.66
-2.76
-3.02
-2.14
-0.18
2.26
4.13
4.20
1.53
-4.34
-13.24
-24.52
-37.30
-50.65
-63.85
-76.47
-88.43
-99.91
-111.28
-122.80
-134.41
-145.50
-154.95
-161.37
-163.49
-160.64
-152.97
-141.48
-127.76
-113.51
-100.03
-87.99
-77.40
-67.86
-58.96
-50.46
-42.47
-35.20
-28.77
-22.99
-17.38
-11.36
-4.57
2.90
10.47
17.28
22.50
25.62
26.57
25.65
23.24
19.79
15.70
11.45
7.71
5.19
4.41
5.26
6.93
8.09
7.40
4.14
-1.48
-8.37
-15.03
-20.03
-22.41
-21.76
-18.06
-11.56
-2.74
7.71
18.80
29.39
38.50
45.57
50.65
54.24
57.09
59.79
62.61
65.47
68.07
70.12
71.47
72.17
72.29
71.93
71.08
69.67
67.67
65.10
62.04
58.63
55.01
51.27
47.48
43.69
39.89
36.00
31.88
27.32
22.18
16.44
10.29
4.05
-1.89
-7.23
-11.86
-15.88
-19.59
-23.31
-27.35
-31.81
-36.61
-41.36
-45.46
-48.09
-48.42
-45.77
-39.83
-30.82
-19.40
-6.53
6.81
19.83
32.03
43.18
53.18
61.99
69.56
75.80
80.70
84.26
86.58
87.85
88.35
88.40
88.26
88.01
87.44
86.09
83.53
79.56
74.44
68.72
63.00
57.72
53.00
48.79
45.06
41.88
39.20
36.71
33.74
29.50
23.64
16.52
9.20
2.95
-1.45
-4.16
-6.27
-9.21
-14.09
-21.23
-30.14
-39.80
-49.04
-56.85
-62.40
-65.10
-64.60
-60.94
-54.66
-46.83
-38.71
-31.44
-25.72
-21.62
-18.75
-16.55
-14.54
-12.51
-10.50
-8.67
-7.14
-5.91
-4.90
-3.93
-2.87
-1.63
-0.26
1.12
2.26
2.94
2.98
2.31
1.00
-0.80
-2.95
-5.29
-7.74
-10.29
-12.92
-15.63
-18.43
-21.24
-24.02
-26.74
-29.40
-32.09
-34.99
-38.31
-42.26
-46.98
-52.42
-58.26
-63.91
-68.45
-70.92
-70.42
-66.48
-59.18
-49.19
-37.51
-25.27
-13.36
-2.38
7.41
15.91
23.03
28.63
32.57
34.82
35.53
35.08
34.05
32.98
32.30
32.16
32.40
32.74
32.84
32.52
31.74
30.58
29.11
27.33
25.18
22.60
19.60
16.32
12.97
9.69
6.48
3.20
-0.31
-4.16
-8.29
-12.51
-16.63
-20.56
-24.41
-28.46
-33.05
-38.46
-44.78
-51.74
-58.67
-64.56
-68.22
-68.62
-65.17
-57.94
-47.70
-35.61
-22.94
-10.76
0.27
9.84
17.89
24.43
29.47
33.07
35.34
36.51
36.89
36.81
36.54
36.25
36.03
35.89
35.86
35.95
36.14
36.29
36.16
35.44
33.91
31.50
28.36
24.78
21.06
17.42
13.90
10.39
6.71
2.75
-1.51
-5.95
-10.41
-14.74
-18.90
-22.96
-27.06
-31.40
-36.20
-41.67
-47.92
-54.75
-61.52
-67.14
-70.23
-69.63
-64.75
-55.86
-44.00
-30.64
-17.21
-4.76
6.17
15.39
22.91
28.80
33.12
36.00
37.70
38.57
38.99
39.23
39.41
39.47
39.30
38.83
38.15
37.48
37.03
36.87
36.84
36.57
35.65
33.79
30.97
27.39
23.44
19.54
15.98
12.85
9.95
6.94
3.46
-0.67
-5.36
-10.26
-14.95
-19.09
-22.63
-25.80
-29.08
-33.01
-38.00
-44.19
-51.29
-58.52
-64.70
-68.43
-68.54
-64.40
-56.20
-44.96
-32.09
-19.06
-6.97
3.62
12.56
19.93
25.83
30.25
33.22
34.84
35.39
35.28
34.91
34.57
34.35
34.18
33.95
33.63
33.33
33.19
33.29
33.51
33.54
32.98
31.50
29.01
25.68
21.94
18.28
15.07
12.39
10.04
7.63
4.72
1.00
-3.53
-8.56
-13.64
-18.30
-22.27
-25.58
-28.54
-31.61
-35.31
-40.03
-45.90
-52.64
-59.47
-65.17
-68.37
-67.90
-63.21
-54.60
-43.09
-30.14
-17.16
-5.20
5.25
14.09
21.43
27.35
31.83
34.76
36.16
36.23
35.44
34.34
33.40
32.88
32.77
32.86
32.99
33.08
33.19
33.37
33.56
33.51
32.85
31.27
28.65
25.19
21.32
17.55
14.25
11.50
9.09
6.60
3.66
0.08
-4.07
-8.52
-12.95
-17.13
-21.03
-24.75
-28.50
-32.54
-37.13
-42.47
-48.57
-55.12
-61.40
-66.29
-68.49
-66.98
-61.33
-51.92
-39.86
-26.63
-13.66
-1.97
7.95
16.01
22.31
26.95
30.00
31.53
31.78
31.14
30.13
29.21
28.70
28.68
29.05
29.59
30.11
30.42
30.40
29.95
29.03
27.59
25.68
23.36
20.72
17.87
14.94
12.02
9.15
6.28
3.28
-0.02
-3.72
-7.81
-12.06
-16.17
-19.89
-23.18
-26.24
-29.52
-33.52
-38.58
-44.74
-51.53
-58.00
-62.96
-65.15
-63.67
-58.19
-49.11
-37.42
-24.52
-11.76
-0.26
9.32
16.72
22.05
25.56
27.62
28.60
28.83
28.64
28.27
27.90
27.63
27.46
27.31
27.10
26.77
26.32
25.78
25.19
24.49
23.59
22.35
20.68
18.61
16.24
13.70
11.04
8.22
5.13
1.70
-2.03
-5.94
-9.82
-13.51
-17.00
-20.39
-23.93
-27.98
-32.84
-38.66
-45.25
-51.99
-57.81
-61.42
-61.64
-57.80
-50.02
-39.20
-26.73
-14.14
-2.66
7.01
14.66
20.42
24.53
27.19
28.57
28.84
28.27
27.29
26.34
25.80
25.79
26.25
26.92
27.50
27.78
27.63
27.05
26.07
24.74
23.07
21.08
18.76
16.12
13.14
9.87
6.33
2.59
-1.27
-5.15
-8.97
-12.64
-16.13
-19.49
-22.90
-26.63
-30.99
-36.22
-42.32
-48.92
-55.21
-60.06
-62.27
-60.90
-55.62
-46.85
-35.66
-23.42
-11.41
-0.52
8.81
16.50
22.54
26.90
29.52
30.41
29.86
28.40
26.70
25.37
24.79
25.02
25.88
27.03
28.14
28.95
29.27
28.99
28.05
26.45
24.27
21.67
18.85
15.98
13.12
10.19
7.09
3.70
0.04
-3.75
-7.53
-11.16
-14.67
-18.20
-21.98
-26.20
-31.02
-36.47
-42.45
-48.62
-54.34
-58.70
-60.60
-59.13
-53.83
-44.99
-33.56
-20.92
-8.48
2.66
11.90
19.04
24.15
27.43
29.14
29.59
29.19
28.42
27.71
27.38
27.58
28.26
29.27
30.42
31.50
32.36
32.85
32.81
32.08
30.51
28.10
24.96
21.37
17.65
14.04
10.62
7.28
3.82
0.10
-3.89
-8.02
-12.06
-15.85
-19.36
-22.72
-26.20
-30.14
-34.84
-40.42
-46.67
-52.92
-58.09
-60.89
-60.26
-55.68
-47.46
-36.63
-24.62
-12.80
-2.13
6.89
14.14
19.69
23.64
26.07
27.13
27.11
26.39
25.45
24.70
24.44
24.80
25.69
26.92
28.18
29.18
29.70
29.62
28.94
27.76
26.15
24.17
21.82
19.08
15.94
12.42
8.60
4.63
0.65
-3.21
-6.87
-10.32
-13.62
-16.93
-20.50
-24.61
-29.54
-35.33
-41.73
-48.05
-53.18
-55.88
-55.09
-50.34
-41.91
-30.85
-18.62
-6.66
3.97
12.75
19.57
24.57
27.88
29.63
29.97
29.24
27.90
26.55
25.68
25.54
26.09
27.06
28.12
28.96
29.43
29.46
29.03
28.12
26.67
24.60
21.92
18.76
15.38
12.04
8.94
6.06
3.18
0.04
-3.55
-7.57
-11.76
-15.82
-19.49
-22.75
-25.80
-29.08
-33.06
-38.08
-44.18
-50.90
-57.30
-62.06
-63.82
-61.61
-55.21
-45.26
-33.09
-20.27
-8.12
2.53
11.41
18.61
24.31
28.62
31.58
33.29
33.94
33.94
33.70
33.55
33.59
33.72
33.76
33.58
33.25
32.91
32.69
32.53
32.09
30.92
28.59
24.92
20.10
14.62
9.02
3.73
-1.16
-5.81
-10.51
-15.50
-20.76
-26.03
-30.90
-34.91
-37.82
-39.62
-40.65
-41.50
-42.83
-45.25
-49.05
-54.10
-59.75
-64.87
-68.08
-68.17
-64.37
-56.65
-45.74
-32.84
-19.31
-6.24
5.69
16.23
25.42
33.37
40.25
46.24
51.65
56.89
62.44
68.66
75.66
83.22
90.84
97.95
104.15
109.36
113.84
118.04
122.31
126.69
130.76
133.86
135.38
135.07
133.28
130.85
128.79
127.77
127.87
128.40
128.08
125.44
119.19
108.62
93.75
75.39
54.92
33.95
13.76
-5.08
-22.97
-41.06
-60.65
-82.34
-105.54
-128.32
-147.97
-161.86
-168.35
-167.18
-159.40
-146.86
-131.55
-115.19
-99.03
-83.91
-70.45
-59.07
-49.94
-42.93
-37.62
-33.42
-29.81
-26.51
-23.54
-21.13
-19.55
-18.91
-19.04
-19.57
-20.06
-20.23
-20.17
-20.42
-21.93
-25.63
-32.14
-41.36
-52.46
-64.14
-75.17
-84.81
-93.08
-100.50
-107.66
-114.85
-121.76
-127.70
-131.87
-133.77
-133.28
-130.79
-126.95
-122.56
-118.36
-114.90
-112.40
-110.66
-109.05
-106.70
-102.73
-96.42
-87.40
-75.71
-61.72
-46.22
-30.36
-15.55
-3.20
5.61
10.51
12.08
11.70
11.17
12.11
15.44
21.16
28.44
36.05
43.00
49.04
54.76
61.36
69.91
80.66
92.45
102.82
108.46
106.08
93.51
70.69
40.34
7.71
-20.61
-38.67
-43.23
-34.86
-17.69
2.37
19.84
31.47
36.66
36.66
33.16
27.36
19.75
10.67
0.90
-8.22
-15.21
-19.12
-19.90
-18.28
-15.29
-11.66
-7.57
-2.78
2.91
9.24
15.46
20.61
24.08
25.96
27.12
28.77
31.97
37.14
43.99
51.62
59.01
65.32
70.16
73.55
75.80
77.24
78.10
78.41
78.14
77.34
76.27
75.37
75.07
75.56
76.67
77.92
78.74
78.80
78.19
77.30
76.71
76.79
77.58
78.71
79.61
79.74
78.85
77.12
75.14
73.69
73.50
75.04
78.36
83.15
88.78
94.46
99.28
102.35
103.06
101.43
98.47
96.19
97.00
102.66
113.10
125.87
136.69
140.81
134.65
116.98
88.97
53.45
13.85
-26.58
-65.01
-98.95
-126.29
-145.52
-156.22
-159.38
-157.23
-152.72
-148.60
-146.82
-148.16
-152.31
-158.25
-164.73
-170.71
-175.67
-179.73
-183.49
-187.60
-192.29
-197.05
-200.51
-200.82
-196.12
-185.20
-167.96
-145.35
-119.16
-91.42
-63.85
-37.74
-13.90
7.01
24.41
37.79
46.95
52.20
54.39
54.64
54.04
53.26
52.45
51.37
49.65
47.12
43.84
40.06
36.05
31.95
27.78
23.47
19.03
14.61
10.47
6.81
3.69
0.94
-1.72
-4.58
-7.74
-11.14
-14.71
-18.45
-22.41
-26.58
-30.69
-34.23
-36.62
-37.47
-36.73
-34.60
-31.27
-26.58
-20.06
-11.17
0.21
13.44
27.18
39.85
50.26
58.05
63.66
67.98
71.77
75.33
78.39
80.44
81.06
80.22
78.31
75.94
73.50
71.01
68.08
64.11
58.66
51.66
43.44
34.56
25.63
17.16
9.55
3.17
-1.65
-4.69
-6.00
-6.05
-5.67
-5.84
-7.38
-10.69
-15.62
-21.51
-27.30
-31.87
-34.25
-34.03
-31.37
-27.05
-22.12
-17.54
-13.96
-11.62
-10.51
-10.48
-11.37
-12.97
-15.02
-17.15
-19.00
-20.36
-21.23
-21.86
-22.59
-23.73
-25.35
-27.14
-28.44
-28.37
-26.08
-21.07
-13.40
-3.79
6.63
16.66
25.40
32.50
38.06
42.51
46.23
49.35
51.76
53.20
53.51
52.81
51.52
50.17
49.17
48.58
48.15
47.41
45.86
42.98
38.23
31.02
20.73
7.09
-9.59
-28.26
-47.31
-65.04
-80.14
-92.00
-100.61
-106.28
-109.35
-110.05
-108.64
-105.65
-101.93
-98.28
-94.94
-91.12
-85.17
-75.31
-60.64
-41.77
-20.74
-0.15
17.95
32.75
44.55
54.01
61.41
66.29
67.93
66.02
61.15
54.67
48.19
42.86
39.11
36.78
35.44
34.63
34.04
33.51
32.96
32.42
32.04
31.99
32.45
33.42
34.78
36.45
38.52
41.29
45.15
50.31
56.64
63.69
70.80
77.47
83.55
89.18
94.64
100.07
105.32
109.97
113.52
115.50
115.62
113.92
110.80
107.11
104.02
102.69
103.87
107.57
112.97
118.58
122.64
123.49
119.97
111.58
98.58
81.77
62.25
41.01
18.66
-4.68
-29.17
-54.83
-81.15
-106.87
-130.22
-149.40
-163.06
-170.66
-172.55
-169.75
-163.74
-156.07
-148.08
-140.54
-133.55
-126.62
-119.07
-110.36
-100.41
-89.69
-78.94
-68.81
-59.57
-51.01
-42.64
-34.04
-25.13
-16.29
-8.28
-2.07
1.32
1.10
-3.07
-10.82
-21.01
-31.85
-41.35
-48.02
-51.43
-52.36
-52.47
-53.41
-55.99
-59.66
-62.79
-63.53
-60.79
-54.98
-47.88
-42.00
-39.48
-41.32
-47.16
-55.67
-65.27
-74.79
-83.66
-91.79
-99.25
-106.14
-112.59
-118.89
-125.46
-132.64
-140.27
-147.39
-152.46
-153.74
-150.04
-141.12
-127.84
-111.70
-94.36
-77.13
-60.86
-45.99
-32.84
-21.66
-12.69
-6.02
-1.43
1.57
3.65
5.50
7.63
10.27
13.37
16.64
19.65
21.96
23.20
23.13
21.67
18.88
14.93
10.14
4.91
-0.38
-5.48
-10.41
-15.41
-20.75
-26.40
-31.68
-35.28
-35.58
-31.26
-21.89
-8.15
8.27
25.36
41.34
55.08
66.15
74.49
80.11
82.83
82.45
78.93
72.68
64.58
55.88
47.80
41.23
36.44
33.19
31.00
29.50
28.61
28.50
29.28
30.80
32.60
34.19
35.40
36.48
38.03
40.72
44.99
50.89
58.26
66.93
76.81
87.87
99.99
112.72
125.36
137.09
147.22
155.25
160.93
164.23
165.16
163.89
160.65
155.73
149.50
142.27
134.30
125.78
116.83
107.58
98.18
88.81
79.68
70.98
62.86
55.38
48.53
42.19
36.16
30.14
23.84
17.03
9.74
2.23
-4.99
-11.26
-16.02
-18.97
-20.15
-19.95
-18.98
-17.81
-16.85
-16.19
-15.72
-15.17
-14.23
-12.76
-10.82
-8.66
-6.71
-5.50
-5.54
-7.18
-10.54
-15.39
-21.09
-26.73
-31.34
-34.16
-34.85
-33.58
-30.95
-27.80
-24.91
-22.90
-22.08
-22.43
-23.62
-25.06
-26.10
-26.11
-24.80
-22.26
-18.96
-15.54
-12.50
-10.00
-7.85
-5.65
-3.02
0.21
3.97
8.03
12.15
16.21
20.17
24.08
27.87
31.36
34.23
36.17
36.96
36.67
35.62
34.34
33.39
33.16
33.80
35.11
36.65
37.85
38.16
37.16
34.63
30.59
25.33
19.30
13.06
7.08
1.67
-3.06
-7.18
-10.79
-13.96
-16.66
-18.80
-20.32
-21.21
-21.55
-21.48
-21.21
-20.97
-21.02
-21.58
-22.87
-24.96
-27.78
-31.13
-34.66
-38.10
-41.28
-44.24
-47.16
-50.24
-53.55
-56.95
-60.15
-62.82
-64.76
-65.96
-66.57
-66.83
-66.95
-67.06
-67.28
-67.68
-68.27
-68.92
-69.23
-68.62
-66.42
-62.13
-55.62
-47.22
-37.63
-27.72
-18.17
-9.33
-1.15
6.59
14.11
21.38
28.10
33.83
38.16
40.89
42.01
41.72
40.30
37.99
34.99
31.47
27.54
23.36
19.15
15.12
11.53
8.53
6.16
4.33
2.76
1.16
-0.83
-3.45
-6.79
-10.73
-14.89
-18.69
-21.41
-22.36
-21.17
-17.84
-12.82
-6.86
-0.82
4.60
8.89
11.85
13.47
13.91
13.41
12.29
10.85
9.31
7.80
6.30
4.75
3.06
1.19
-0.82
-2.98
-5.26
-7.64
-9.97
-12.06
-13.68
-14.70
-15.20
-15.54
-16.28
-18.02
-21.19
-25.86
-31.54
-37.24
-41.62
-43.42
-41.87
-36.96
-29.42
-20.31
-10.61
-0.85
8.89
18.63
28.15
36.86
43.91
48.67
51.00
51.31
50.31
48.54
46.11
42.75
38.06
31.87
24.54
16.72
9.17
2.30
-3.96
-10.00
-16.23
-22.67
-28.99
-34.88
-40.55
-47.09
-56.13
-69.01
-85.78
-104.78
-123.08
-137.50
-145.88
-147.70
-143.86
-135.75
-124.48
-110.41
-93.56
-74.25
-53.61
-33.51
-16.00
-2.55
6.43
11.54
13.97
14.90
15.06
14.67
13.57
11.64
8.98
5.97
3.09
0.56
-1.82
-4.70
-9.01
-15.56
-24.77
-36.46
-49.89
-63.73
-76.26
-85.48
-89.47
-86.75
-76.79
-60.29
-39.14
-16.06
6.07
24.88
38.92
47.75
51.78
51.93
49.40
45.43
41.24
37.81
35.77
35.23
35.79
36.62
36.82
35.74
33.26
29.81
26.17
23.10
20.96
19.51
18.02
15.63
11.59
5.66
-1.89
-10.26
-18.28
-24.59
-27.76
-26.62
-20.47
-9.33
5.96
23.76
41.96
58.37
71.11
78.96
81.57
79.37
73.52
65.52
56.99
49.24
43.06
38.54
35.09
31.69
27.27
21.07
12.89
3.13
-7.41
-17.87
-27.60
-36.33
-44.21
-51.67
-59.33
-67.73
-77.04
-86.86
-96.10
-103.13
-106.24
-104.19
-96.70
-84.61
-69.70
-54.14
-40.01
-28.76
-21.07
-16.82
-15.27
-15.22
-15.18
-13.74
-9.83
-3.06
6.25
17.16
28.64
39.94
50.94
62.01
73.76
86.48
99.84
112.83
124.02
131.98
135.76
135.23
131.16
125.08
118.87
114.24
112.23
113.02
116.02
120.24
124.70
128.73
131.94
134.09
134.95
134.35
132.30
129.18
125.66
122.56
120.45
119.44
119.06
118.52
116.96
113.80
108.91
102.60
95.46
88.10
80.91
73.86
66.51
58.12
47.94
35.56
21.15
5.58
-9.71
-23.09
-33.17
-39.16
-41.03
-39.43
-35.43
-30.21
-24.88
-20.40
-17.52
-16.92
-18.98
-23.80
-31.04
-39.93
-49.55
-59.06
-67.96
-76.13
-83.74
-90.98
-97.82
-104.03
-109.16
-112.74
-114.35
-113.79
-111.13
-106.69
-101.09
-95.06
-89.22
-83.79
-78.38
-72.09
-63.83
-52.86
-39.16
-23.49
-7.16
8.35
21.92
32.88
41.12
46.85
50.50
52.57
53.65
54.28
54.90
55.72
56.59
57.05
56.46
54.22
50.06
44.14
37.06
29.62
22.59
16.44
11.26
6.80
2.60
-1.79
-6.61
-11.80
-16.98
-21.47
-24.46
-25.14
-22.98
-17.92
-10.45
-1.62
7.25
14.89
20.38
23.35
24.01
22.96
20.95
18.65
16.45
14.49
12.65
10.69
8.35
5.43
1.86
-2.36
-7.07
-12.03
-16.94
-21.55
-25.86
-30.18
-35.06
-41.08
-48.47
-56.92
-65.53
-73.02
-78.20
-80.30
-79.17
-75.24
-69.31
-62.29
-55.01
-48.10
-42.00
-36.97
-33.18
-30.65
-29.35
-29.17
-29.89
-31.23
-32.91
-34.77
-36.83
-39.36
-42.69
-47.05
-52.40
-58.37
-64.29
-69.37
-72.91
-74.42
-73.85
-71.61
-68.50
-65.62
-63.93
-63.98
-65.60
-67.87
-69.41
-68.73
-64.74
-56.95
-45.59
-31.44
-15.71
0.21
14.93
27.28
36.46
42.19
44.65
44.37
42.06
38.39
33.89
28.97
23.89
18.91
14.20
9.94
6.19
2.99
0.26
-2.11
-4.25
-6.25
-8.08
-9.58
-10.42
-10.19
-8.49
-5.20
-0.59
4.56
9.12
11.92
12.21
9.93
5.81
1.21
-2.36
-3.61
-1.82
3.11
10.74
20.32
30.97
41.81
52.06
61.02
68.12
72.89
75.15
75.02
72.97
69.69
65.83
61.77
57.50
52.71
46.96
40.00
31.92
23.17
14.40
6.28
-0.66
-6.14
-10.22
-13.31
-16.14
-19.55
-24.31
-30.81
-38.93
-48.02
-57.01
-64.67
-69.86
-71.73
-69.88
-64.47
-56.08
-45.62
-34.08
-22.35
-11.10
-0.82
8.17
15.59
21.27
25.18
27.48
28.53
28.80
28.72
28.60
28.54
28.49
28.30
27.81
26.93
25.66
24.04
22.16
20.10
17.88
15.50
12.92
10.03
6.81
3.22
-0.68
-4.76
-8.87
-12.96
-17.05
-21.36
-26.21
-31.89
-38.47
-45.62
-52.53
-58.12
-61.24
-61.07
-57.35
-50.43
-41.10
-30.30
-18.91
-7.55
3.37
13.45
22.29
29.42
34.48
37.35
38.29
37.87
36.80
35.71
34.96
34.64
34.67
34.91
35.29
35.75
36.26
36.71
36.95
36.80
36.13
34.89
33.09
30.77
27.95
24.60
20.59
15.69
9.57
1.97
-7.23
-17.79
-29.06
-39.98
-49.29
-55.79
-58.62
-57.52
-52.81
-45.39
-36.40
-27.01
-18.11
-10.19
-3.32
2.70
8.16
13.23
17.84
21.72
24.42
25.57
25.08
23.23
20.73
18.54
17.62
18.50
21.21
25.04
28.79
31.28
31.67
29.73
25.74
20.36
14.56
9.57
6.71
6.95
10.23
14.90
17.95
16.02
6.95
-8.99
-28.87
-48.26
-62.99
-70.76
-71.59
-67.18
-59.68
-50.60
-40.62
-29.94
-19.00
-8.73
-0.33
5.06
7.12
6.36
3.95
1.26
-0.68
-1.51
-1.48
-1.25
-1.43
-2.25
-3.45
-4.44
-4.65
-3.85
-2.34
-0.85
-0.20
-0.90
-3.01
-6.08
-9.46
-12.52
-14.97
-16.91
-18.71
-20.88
-23.91
-28.20
-33.97
-41.17
-49.41
-57.84
-65.25
-70.29
-71.73
-68.80
-61.31
-49.75
-35.04
-18.37
-0.98
16.00
31.64
45.21
56.29
64.77
70.93
75.34
78.81
82.22
86.39
91.89
99.00
107.66
117.45
127.65
137.22
144.97
149.74
150.66
147.35
140.04
129.47
116.75
103.05
89.43
76.61
64.99
54.53
44.80
34.95
23.87
10.52
-5.67
-24.37
-44.19
-62.92
-78.13
-87.91
-91.45
-89.21
-82.59
-73.41
-63.32
-53.52
-44.69
-37.20
-31.29
-27.15
-24.88
-24.39
-25.35
-27.13
-29.03
-30.40
-30.85
-30.35
-29.20
-27.89
-26.82
-26.12
-25.64
-25.01
-23.89
-22.18
-20.14
-18.26
-17.05
-16.83
-17.58
-19.06
-20.94
-23.06
-25.53
-28.63
-32.63
-37.63
-43.53
-50.02
-56.68
-63.02
-68.39
-71.95
-72.80
-70.16
-63.73
-53.83
-41.37
-27.54
-13.47
0.00
12.38
23.33
32.58
39.79
44.67
47.13
47.38
45.87
43.21
39.94
36.43
32.79
28.94
24.72
20.00
14.81
9.33
3.86
-1.34
-6.05
-10.19
-13.75
-16.69
-18.96
-20.52
-21.48
-22.08
-22.67
-23.59
-25.08
-27.12
-29.56
-32.05
-34.23
-35.74
-36.36
-36.04
-35.03
-33.88
-33.34
-34.10
-36.45
-40.09
-44.04
-46.90
-47.28
-44.28
-37.77
-28.45
-17.50
-6.17
4.62
14.42
23.13
30.80
37.35
42.59
46.33
48.51
49.33
49.19
48.58
47.88
47.33
47.05
47.15
47.82
49.31
51.86
55.54
60.13
65.10
69.74
73.32
75.30
75.48
74.02
71.41
68.22
65.01
62.20
59.95
58.22
56.80
55.39
53.71
51.62
49.24
46.90
45.01
43.84
43.25
42.72
41.57
39.40
36.55
34.16
33.85
37.10
44.69
56.32
70.65
85.36
97.39
103.21
99.46
83.82
56.09
18.72
-23.49
-64.69
-99.69
-125.44
-141.37
-148.94
-150.40
-147.76
-142.41
-135.21
-126.84
-117.99
-109.15
-100.44
-91.42
-81.33
-69.42
-55.42
-39.74
-23.44
-7.90
5.55
16.02
23.30
27.85
30.56
32.44
34.20
36.13
38.09
39.73
40.71
40.97
40.65
40.02
39.31
38.61
37.89
37.05
36.07
35.08
34.28
33.95
34.26
35.21
36.56
37.80
38.28
37.36
34.64
30.03
23.89
16.82
9.50
2.53
-3.74
-9.23
-14.02
-18.30
-22.22
-25.84
-29.08
-31.71
-33.36
-33.72
-32.59
-30.03
-26.38
-22.15
-17.91
-14.19
-11.34
-9.58
-8.94
-9.32
-10.48
-12.18
-14.17
-16.26
-18.32
-20.13
-21.37
-21.60
-20.43
-17.65
-13.40
-8.13
-2.52
2.81
7.41
11.10
13.85
15.75
16.91
17.40
17.28
16.66
15.58
14.16
12.43
10.46
8.24
5.77
3.06
0.24
-2.52
-4.95
-6.84
-8.05
-8.62
-8.70
-8.50
-8.27
-8.19
-8.40
-9.00
-10.00
-11.34
-12.81
-14.18
-15.20
-15.73
-15.68
-15.15
-14.25
-13.16
-12.09
-11.21
-10.65
-10.45
-10.53
-10.81
-11.18
-11.59
-12.03
-12.51
-12.95
-13.21
-13.15
-12.66
-11.70
-10.43
-9.04
-7.69
-6.48
-5.45
-4.55
-3.82
-3.28
-3.02
-3.08
-3.49
-4.21
-5.25
-6.57
-8.13
-9.84
-11.49
-12.87
-13.71
-13.87
-13.34
-12.26
-10.88
-9.46
-8.23
-7.32
-6.81
-6.73
-7.07
-7.80
-8.91
-10.31
-11.86
-13.32
-14.44
-15.00
-14.92
-14.33
-13.50
-12.76
-12.35
-12.33
-12.63
-13.01
-13.30
-13.33
-13.06
-12.50
-11.70
-10.74
-9.72
-8.77
-8.02
-7.58
-7.50
-7.73
-8.16
-8.61
-8.86
-8.75
-8.17
-7.14
-5.80
-4.40
-3.20
-2.37
-1.95
-1.82
-1.76
-1.55
-1.05
-0.27
0.64
1.44
1.88
1.78
1.11
0.01
-1.27
-2.45
-3.33
-3.84
-4.06
-4.17
-4.31
-4.54
-4.84
-5.12
-5.33
-5.43
-5.43
-5.32
-5.10
-4.74
-4.30
-3.85
-3.49
-3.32
-3.33
-3.43
-3.51
-3.45
-3.21
-2.80
-2.25
-1.63
-1.01
-0.49
-0.16
-0.10
-0.31
-0.71
-1.10
-1.27
-1.13
-0.72
-0.23
0.13
0.25
0.22
0.20
0.38
0.77
1.22
1.51
1.48
1.12
0.63
0.21
0.02
0.03
0.11
0.12
-0.02
-0.25
-0.44
-0.45
-0.27
0.08
0.46
0.77
0.92
0.92
0.85
0.78
0.75
0.76
0.76
0.74
0.70
0.71
0.78
0.92
1.05
1.05
0.88
0.56
0.21
-0.04
-0.16
-0.20
-0.30
-0.56
-1.02
-1.64
-2.33
-3.00
-3.64
-4.21
-4.73
-5.15
-5.45
-5.57
-5.51
-5.26
-4.86
-4.36
-3.82
-3.33
-2.93
-2.65
-2.46
-2.34
-2.28
-2.26
-2.29
-2.32
-2.33
-2.27
-2.14
-1.94
-1.73
-1.54
-1.40
-1.29
-1.16
-1.01
-0.84
-0.63
-0.40
-0.14
0.13
0.40
0.62
0.78
0.88
0.99
1.12
1.28
1.42
1.48
1.48
1.45
1.48
1.61
1.84
2.09
2.23
2.18
1.91
1.49
1.03
0.66
0.46
0.43
0.55
0.73
0.82
0.72
0.36
-0.23
-0.94
-1.58
-2.01
-2.10
-1.87
-1.43
-0.92
-0.47
-0.14
0.12
0.33
0.52
0.63
0.56
0.26
-0.27
-0.94
-1.59
-2.08
-2.37
-2.44
-2.34
-2.13
-1.84
-1.51
-1.21
-1.03
-1.03
-1.21
-1.45
-1.57
-1.45
-1.07
-0.52
-0.01
0.30
0.36
0.26
0.20
0.31
0.61
0.98
1.23
1.18
0.79
0.15
-0.63
-1.42
-2.20
-2.94
-3.62
-4.10
-4.25
-3.96
-3.30
-2.45
-1.65
-1.14
-0.98
-1.08
-1.27
-1.39
-1.32
-1.07
-0.72
-0.35
-0.06
0.10
0.16
0.13
0.06
0.01
0.01
0.13
0.39
0.76
1.14
1.35
1.22
0.65
-0.25
-1.31
-2.24
-2.85
-3.05
-2.90
-2.49
-1.87
-1.11
-0.22
0.73
1.63
2.34
2.79
2.96
2.97
2.96
3.06
3.34
3.73
4.13
4.42
4.51
4.39
4.13
3.86
3.71
3.78
4.10
4.62
5.23
5.77
6.14
6.26
6.12
5.80
5.31
4.68
3.87
2.86
1.69
0.48
-0.59
-1.40
-1.89
-2.18
-2.43
-2.82
-3.44
-4.22
-5.05
-5.76
-6.29
-6.67
-6.94
-7.17
-7.37
-7.46
-7.35
-6.97
-6.31
-5.51
-4.67
-3.86
-3.10
-2.30
-1.38
-0.35
0.71
1.66
2.44
3.06
3.67
4.43
5.39
6.47
7.48
8.24
8.64
8.69
8.49
8.12
7.62
6.95
6.08
4.97
3.67
2.29
0.94
-0.26
-1.19
-1.78
-1.98
-1.85
-1.53
-1.23
-1.18
-1.48
-2.06
-2.66
-3.03
-2.99
-2.57
-1.98
-1.47
-1.22
-1.28
-1.60
-2.06
-2.61
-3.24
-3.92
-4.61
-5.23
-5.67
-5.89
-5.91
-5.80
-5.62
-5.35
-4.94
-4.31
-3.42
-2.31
-1.12
0.03
0.98
1.64
1.96
1.90
1.49
0.78
-0.15
-1.15
-2.05
-2.75
-3.19
-3.39
-3.41
-3.26
-2.99
-2.59
-2.15
-1.78
-1.62
-1.74
-2.14
-2.72
-3.35
-3.91
-4.35
-4.61
-4.66
-4.45
-3.96
-3.24
-2.36
-1.47
-0.72
-0.17
0.18
0.40
0.59
0.84
1.21
1.71
2.36
3.14
3.93
4.59
4.90
4.70
3.93
2.71
1.35
0.22
-0.38
-0.39
0.03
0.57
0.91
0.85
0.37
-0.38
-1.16
-1.73
-1.97
-1.84
-1.46
-0.98
-0.55
-0.32
-0.29
-0.47
-0.83
-1.35
-1.97
-2.65
-3.26
-3.67
-3.79
-3.64
-3.37
-3.14
-3.02
-2.97
-2.92
-2.76
-2.50
-2.23
-1.99
-1.80
-1.59
-1.25
-0.73
-0.05
0.72
1.48
2.13
2.61
2.84
2.78
2.48
2.02
1.57
1.31
1.30
1.48
1.75
1.94
1.95
1.73
1.28
0.67
-0.02
-0.64
-1.05
-1.15
-0.93
-0.50
-0.06
0.20
0.18
-0.09
-0.44
-0.67
-0.62
-0.24
0.42
1.22
2.02
2.72
3.22
3.51
3.54
3.33
2.89
2.27
1.57
0.88
0.30
-0.11
-0.35
-0.45
-0.50
-0.59
-0.77
-1.06
-1.36
-1.59
-1.65
-1.55
-1.35
-1.14
-0.99
-0.89
-0.86
-0.84
-0.86
-0.90
-0.93
-0.91
-0.74
-0.39
0.09
0.56
0.88
0.91
0.68
0.30
-0.05
-0.20
-0.12
0.17
0.56
0.95
1.28
1.56
1.79
1.98
2.12
2.23
2.35
2.51
2.72
2.93
3.06
3.05
2.90
2.70
2.57
2.61
2.78
3.02
3.20
3.24
3.13
2.92
2.70
2.51
2.38
2.32
2.33
2.42
2.59
2.83
3.07
3.29
3.44
3.54
3.61
3.68
3.73
3.73
3.65
3.49
3.22
2.86
2.39
1.82
1.19
0.58
0.11
-0.15
-0.16
-0.00
0.19
0.30
0.24
0.02
-0.28
-0.54
-0.69
-0.74
-0.75
-0.78
-0.86
-0.97
-1.05
-1.06
-0.98
-0.82
-0.61
-0.40
-0.24
-0.18
-0.21
-0.31
-0.38
-0.31
-0.03
0.43
0.97
1.42
1.69
1.76
1.72
1.69
1.79
2.00
2.30
2.58
2.81
3.00
3.21
3.48
3.78
4.07
4.25
4.29
4.18
4.04
3.95
3.96
4.00
3.93
3.62
3.04
2.29
1.59
1.15
1.10
1.43
1.99
2.55
2.93
3.03
2.88
2.57
2.23
2.00
1.96
2.14
2.48
2.91
3.31
3.61
3.71
3.60
3.27
2.79
2.29
1.87
1.65
1.63
1.74
1.79
1.56
0.93
-0.05
-1.22
-2.31
-3.05
-3.30
-3.07
-2.51
-1.80
-1.18
-0.81
-0.74
-0.95
-1.28
-1.59
-1.74
-1.64
-1.31
-0.83
-0.30
0.20
0.62
0.97
1.26
1.50
1.69
1.83
1.87
1.76
1.46
0.97
0.35
-0.23
-0.56
-0.38
0.40
1.71
3.29
4.70
5.54
5.59
4.87
3.61
2.15
0.75
-0.48
-1.54
-2.52
-3.46
-4.34
-5.08
-5.64
-5.99
-6.13
-6.12
-6.01
-5.87
-5.76
-5.64
-5.43
-5.02
-4.30
-3.28
-2.02
-0.62
0.82
2.23
3.56
4.72
5.60
6.07
6.09
5.73
5.19
4.67
4.28
4.02
3.78
3.43
2.91
2.25
1.53
0.82
0.15
-0.45
-1.02
-1.57
-2.11
-2.76
-3.70
-5.16
-7.41
-10.58
-14.63
-19.36
-24.47
-29.71
-34.94
-40.14
-45.28
-50.25
-54.80
-58.56
-61.24
-62.68
-63.03
-62.67
-62.20
-62.25
-63.27
-65.44
-68.53
-72.06
-75.42
-78.17
-80.11
-81.30
-81.92
-82.06
-81.72
-80.95
-80.02
-79.52
-80.22
-82.67
-86.78
-91.64
-95.70
-97.34
-95.39
-89.60
-80.60
-69.63
-58.12
-47.24
-37.68
-29.61
-22.86
-17.15
-12.26
-8.09
-4.54
-1.46
1.48
4.68
8.46
12.95
17.98
23.24
28.43
33.41
38.25
43.08
47.98
52.82
57.35
61.26
64.36
66.55
67.86
68.32
67.91
66.58
64.36
61.47
58.31
55.48
53.46
52.47
52.33
52.67
53.16
53.84
55.17
57.89
62.59
69.39
77.79
86.89
95.72
103.55
110.02
114.97
118.28
119.70
118.89
115.72
110.42
103.66
96.47
89.82
84.40
80.37
77.44
74.97
72.37
69.19
65.31
60.87
56.21
51.68
47.54
43.90
40.70
37.81
35.08
32.36
29.55
26.60
23.47
20.21
16.96
13.92
11.28
9.18
7.56
6.25
4.96
3.42
1.44
-0.99
-3.76
-6.63
-9.34
-11.73
-13.71
-15.34
-16.66
-17.68
-18.30
-18.36
-17.79
-16.69
-15.35
-14.11
-13.28
-12.98
-13.15
-13.58
-14.05
-14.37
-14.43
-14.20
-13.67
-12.90
-11.96
-10.92
-9.87
-8.86
-7.95
-7.20
-6.71
-6.53
-6.58
-6.71
-6.75
-6.57
-6.18
-5.74
-5.41
-5.28
-5.34
-5.48
-5.61
-5.69
-5.78
-5.99
-6.36
-6.86
-7.37
-7.75
-7.93
-7.87
-7.69
-7.49
-7.36
-7.37
-7.50
-7.67
-7.77
-7.76
-7.65
-7.46
-7.26
-7.06
-6.83
-6.51
-6.11
-5.66
-5.21
-4.81
-4.43
-4.03
-3.54
-2.97
-2.40
-1.92
-1.60
-1.46
-1.42
-1.36
-1.19
-0.82
-0.27
0.39
1.01
1.43
1.45
0.97
-0.03
-1.46
-3.14
-4.78
-6.15
-7.01
-7.27
-7.02
-6.45
-5.81
-5.31
-5.03
-4.88
-4.72
-4.48
-4.19
-3.98
-3.95
-4.09
-4.27
-4.28
-3.93
-3.23
-2.27
-1.28
-0.44
0.13
0.44
0.52
0.45
0.28
0.08
-0.07
-0.10
0.02
0.30
0.65
0.94
1.05
0.92
0.57
0.13
-0.27
-0.57
-0.75
-0.90
-1.13
-1.49
-1.99
-2.60
-3.24
-3.83
-4.30
-4.63
-4.82
-4.92
-5.00
-5.07
-5.12
-5.03
-4.73
-4.21
-3.57
-3.00
-2.66
-2.59
-2.74
-2.95
-3.06
-2.98
-2.73
-2.37
-2.02
-1.77
-1.65
-1.61
-1.61
-1.54
-1.37
-1.10
-0.77
-0.49
-0.29
-0.21
-0.25
-0.41
-0.67
-1.00
-1.32
-1.52
-1.51
-1.28
-0.90
-0.52
-0.27
-0.27
-0.52
-0.97
-1.52
-2.08
-2.55
-2.87
-3.01
-2.99
-2.88
-2.76
-2.73
-2.78
-2.85
-2.88
-2.84
-2.72
-2.58
-2.46
-2.35
-2.20
-2.01
-1.74
-1.42
-1.03
-0.56
-0.01
0.59
1.15
1.55
1.65
1.46
1.05
0.55
0.10
-0.23
-0.47
-0.73
-1.10
-1.65
-2.32
-2.96
-3.40
-3.50
-3.21
-2.63
-1.93
-1.33
-0.95
-0.78
-0.71
-0.60
-0.35
0.03
0.45
0.79
1.00
1.02
0.92
0.72
0.47
0.16
-0.18
-0.50
-0.71
-0.72
-0.51
-0.12
0.29
0.54
0.58
0.46
0.33
0.33
0.51
0.73
0.77
0.49
-0.08
-0.72
-1.14
-1.13
-0.67
0.06
0.81
1.35
1.58
1.47
1.09
0.52
-0.18
-0.96
-1.76
-2.52
-3.12
-3.50
-3.62
-3.49
-3.20
-2.86
-2.56
-2.33
-2.13
-1.90
-1.58
-1.14
-0.64
-0.14
0.24
0.47
0.50
0.39
0.22
0.05
-0.06
-0.13
-0.21
-0.37
-0.59
-0.73
-0.68
-0.33
0.23
0.81
1.12
0.98
0.38
-0.55
-1.56
-2.44
-3.09
-3.45
-3.56
-3.40
-3.01
-2.50
-2.01
-1.74
-1.79
-2.09
-2.40
-2.43
-2.01
-1.16
-0.11
0.82
1.33
1.37
1.05
0.62
0.34
0.32
0.55
0.91
1.24
1.50
1.68
1.84
1.99
2.06
1.99
1.71
1.29
0.86
0.55
0.45
0.49
0.56
0.55
0.44
0.30
0.25
0.38
0.68
1.06
1.38
1.55
1.57
1.45
1.29
1.12
0.94
0.70
0.35
-0.11
-0.60
-1.01
-1.22
-1.18
-0.97
-0.68
-0.47
-0.42
-0.55
-0.78
-1.02
-1.18
-1.21
-1.12
-0.96
-0.86
-0.90
-1.11
-1.44
-1.70
-1.72
-1.43
-0.92
-0.43
-0.24
-0.49
-1.13
-1.90
-2.52
-2.78
-2.65
-2.26
-1.76
-1.27
-0.87
-0.56
-0.31
-0.10
0.07
0.26
0.49
0.78
1.14
1.54
1.95
2.30
2.60
2.78
2.87
2.86
2.77
2.64
2.47
2.30
2.12
1.92
1.68
1.41
1.12
0.79
0.45
0.08
-0.27
-0.57
-0.75
-0.86
-0.97
-1.16
-1.52
-2.01
-2.55
-2.99
-3.28
-3.40
-3.40
-3.30
-3.04
-2.59
-1.90
-1.04
-0.15
0.58
1.02
1.17
1.14
1.11
1.18
1.38
1.66
1.93
2.08
2.09
1.94
1.66
1.31
0.97
0.74
0.73
0.93
1.26
1.51
1.46
0.97
0.10
-0.92
-1.82
-2.44
-2.77
-2.97
-3.17
-3.43
-3.65
-3.68
-3.43
-2.95
-2.40
-1.94
-1.69
-1.63
-1.62
-1.55
-1.35
-1.03
-0.67
-0.37
-0.16
-0.06
-0.04
-0.06
-0.10
-0.18
-0.27
-0.34
-0.36
-0.25
-0.04
0.20
0.35
0.33
0.10
-0.25
-0.64
-0.95
-1.13
-1.21
-1.20
-1.13
-1.00
-0.79
-0.47
-0.05
0.46
1.03
1.54
1.89
1.97
1.75
1.29
0.75
0.27
-0.05
-0.18
-0.20
-0.20
-0.21
-0.27
-0.36
-0.46
-0.56
-0.64
-0.66
-0.58
-0.39
-0.11
0.20
0.53
0.82
1.06
1.19
1.15
0.86
0.31
-0.38
-1.09
-1.65
-2.00
-2.13
-2.07
-1.85
-1.48
-0.94
-0.26
0.47
1.14
1.61
1.84
1.85
1.74
1.63
1.58
1.61
1.65
1.70
1.70
1.68
1.66
1.63
1.63
1.60
1.54
1.43
1.29
1.13
0.95
0.78
0.57
0.30
-0.03
-0.44
-0.90
-1.36
-1.71
-1.85
-1.75
-1.43
-1.03
-0.71
-0.57
-0.62
-0.80
-0.98
-1.05
-0.98
-0.83
-0.70
-0.65
-0.68
-0.76
-0.85
-0.93
-1.02
-1.13
-1.24
-1.28
-1.22
-1.07
-0.90
-0.83
-0.90
-1.06
-1.19
-1.20
-1.05
-0.84
-0.66
-0.60
-0.62
-0.62
-0.54
-0.38
-0.21
-0.13
-0.13
-0.14
-0.04
0.25
0.68
1.10
1.35
1.34
1.10
0.75
0.48
0.38
0.46
0.64
0.80
0.86
0.87
0.94
1.18
1.62
2.11
2.49
2.63
2.52
2.34
2.25
2.32
2.51
2.66
2.64
2.43
2.13
1.87
1.69
1.56
1.34
0.92
0.33
-0.34
-0.90
-1.22
-1.26
-1.11
-0.92
-0.82
-0.89
-1.10
-1.38
-1.69
-2.02
-2.41
-2.87
-3.31
-3.60
-3.57
-3.16
-2.42
-1.54
-0.71
-0.09
0.29
0.49
0.58
0.60
0.51
0.22
-0.27
-0.88
-1.47
-1.90
-2.06
-1.96
-1.68
-1.32
-0.99
-0.70
-0.48
-0.30
-0.12
0.05
0.20
0.33
0.39
0.38
0.29
0.17
0.11
0.15
0.35
0.64
0.93
1.09
1.03
0.77
0.38
-0.00
-0.27
-0.40
-0.42
-0.37
-0.28
-0.12
0.16
0.53
0.90
1.13
1.11
0.79
0.26
-0.35
-0.92
-1.37
-1.70
-1.88
-1.91
-1.76
-1.48
-1.14
-0.85
-0.67
-0.59
-0.49
-0.25
0.17
0.69
1.14
1.37
1.33
1.09
0.83
0.72
0.86
1.20
1.58
1.85
1.91
1.78
1.59
1.49
1.56
1.80
2.10
2.33
2.40
2.27
2.04
1.76
1.53
1.36
1.22
1.04
0.78
0.47
0.15
-0.12
-0.28
-0.33
-0.31
-0.30
-0.41
-0.65
-0.99
-1.30
-1.43
-1.32
-1.01
-0.69
-0.57
-0.79
-1.32
-1.97
-2.50
-2.73
-2.63
-2.32
-1.97
-1.70
-1.50
-1.31
-1.06
-0.77
-0.50
-0.34
-0.27
-0.25
-0.18
-0.02
0.17
0.23
0.03
-0.44
-1.06
-1.60
-1.87
-1.79
-1.45
-0.98
-0.53
-0.16
0.13
0.39
0.59
0.72
0.75
0.72
0.69
0.73
0.86
1.01
1.08
0.94
0.54
-0.10
-0.87
-1.64
-2.24
-2.53
-2.47
-2.08
-1.45
-0.73
-0.08
0.39
0.67
0.81
0.88
0.95
1.02
1.09
1.11
1.09
1.06
1.06
1.08
1.14
1.19
1.24
1.27
1.28
1.25
1.16
0.99
0.73
0.42
0.13
-0.08
-0.17
-0.12
0.05
0.32
0.61
0.85
0.95
0.89
0.70
0.47
0.30
0.18
0.07
-0.09
-0.35
-0.64
-0.87
-0.93
-0.81
-0.59
-0.41
-0.38
-0.51
-0.71
-0.85
-0.87
-0.75
-0.57
-0.41
-0.27
-0.11
0.12
0.40
0.70
0.94
1.07
1.09
1.05
1.02
1.06
1.19
1.42
1.73
2.05
2.34
2.49
2.49
2.32
2.06
1.77
1.52
1.32
1.15
1.01
0.84
0.64
0.37
0.05
-0.34
-0.76
-1.16
-1.48
-1.68
-1.75
-1.75
-1.75
-1.84
-2.09
-2.49
-2.96
-3.36
-3.56
-3.50
-3.22
-2.84
-2.50
-2.28
-2.18
-2.17
-2.23
-2.34
-2.57
-2.95
-3.40
-3.80
-3.98
-3.81
-3.26
-2.42
-1.48
-0.60
0.06
0.47
0.65
0.68
0.63
0.56
0.50
0.45
0.45
0.49
0.59
0.76
0.96
1.15
1.24
1.18
0.96
0.70
0.55
0.63
0.91
1.24
1.40
1.25
0.83
0.38
0.16
0.36
0.93
1.62
2.12
2.20
1.84
1.21
0.58
0.13
-0.03
0.04
0.27
0.55
0.80
0.98
1.08
1.16
1.25
1.36
1.48
1.51
1.35
0.95
0.29
-0.49
-1.23
-1.79
-2.05
-2.03
-1.81
-1.51
-1.28
-1.20
-1.30
-1.52
-1.80
-2.01
-2.09
-2.01
-1.80
-1.51
-1.19
-0.87
-0.54
-0.18
0.21
0.57
0.80
0.79
0.46
-0.16
-0.92
-1.57
-1.93
-1.85
-1.40
-0.74
-0.09
0.39
0.65
0.72
0.73
0.79
0.93
1.15
1.38
1.56
1.66
1.67
1.62
1.54
1.43
1.24
0.90
0.39
-0.25
-0.89
-1.37
-1.58
-1.51
-1.22
-0.84
-0.48
-0.20
0.01
0.19
0.37
0.57
0.79
1.01
1.17
1.24
1.15
0.91
0.63
0.47
0.59
1.03
1.66
2.29
2.68
2.70
2.36
1.76
1.07
0.40
-0.20
-0.72
-1.16
-1.53
-1.81
-1.93
-1.88
-1.65
-1.29
-0.91
-0.62
-0.54
-0.65
-0.87
-1.04
-1.04
-0.84
-0.51
-0.17
0.08
0.24
0.37
0.51
0.69
0.83
0.84
0.66
0.31
-0.13
-0.52
-0.72
-0.65
-0.29
0.33
1.09
1.84
2.38
2.52
2.17
1.41
0.46
-0.37
-0.80
-0.72
-0.21
0.52
1.19
1.67
1.91
1.99
2.01
1.98
1.88
1.70
1.46
1.26
1.16
1.20
1.28
1.26
1.03
0.54
-0.14
-0.84
-1.43
-1.82
-1.97
-1.91
-1.70
-1.38
-1.01
-0.64
-0.30
-0.08
0.00
-0.07
-0.22
-0.32
-0.20
0.21
0.88
1.62
2.15
2.25
1.83
0.98
-0.07
-1.08
-1.88
-2.42
-2.72
-2.83
-2.80
-2.64
-2.31
-1.80
-1.14
-0.39
0.36
1.02
1.51
1.84
2.07
2.24
2.42
2.61
2.80
2.94
3.01
2.99
2.88
2.70
2.49
2.27
2.07
1.89
1.72
1.58
1.49
1.51
1.65
1.89
2.13
2.20
2.04
1.60
1.00
0.38
-0.16
-0.59
-1.00
-1.51
-2.17
-2.96
-3.80
-4.59
-5.22
-5.65
-5.80
-5.62
-5.07
-4.19
-3.10
-1.96
-0.91
-0.05
0.63
1.18
1.64
2.03
2.26
2.28
2.08
1.74
1.36
1.06
0.87
0.72
0.54
0.31
0.04
-0.16
-0.19
-0.07
0.14
0.28
0.24
0.03
-0.27
-0.54
-0.68
-0.67
-0.54
-0.35
-0.18
-0.09
-0.10
-0.21
-0.37
-0.51
-0.54
-0.42
-0.16
0.19
0.54
0.87
1.23
1.63
2.06
2.44
2.67
2.67
2.48
2.17
1.86
1.65
1.60
1.75
2.07
2.57
3.24
4.07
5.01
5.95
6.82
7.52
8.01
8.27
8.32
8.19
7.95
7.68
7.51
7.49
7.64
7.86
7.97
7.82
7.32
6.57
5.76
5.18
5.04
5.40
6.06
6.59
6.51
5.43
3.23
0.11
-3.51
-7.26
-10.95
-14.65
-18.56
-22.78
-27.15
-31.27
-34.76
-37.52
-39.92
-42.67
-46.52
-51.87
-58.54
-65.80
-72.64
-78.07
-81.40
-82.24
-80.49
-76.13
-69.37
-60.64
-50.76
-40.83
-31.95
-24.81
-19.58
-15.96
-13.59
-12.47
-12.97
-15.49
-19.82
-24.70
-28.00
-27.40
-21.40
-10.03
5.09
21.42
36.47
48.59
57.20
62.52
65.08
65.23
63.13
58.97
53.16
46.54
40.12
34.79
30.89
28.21
26.03
23.58
20.32
16.31
12.07
8.51
6.44
6.29
7.84
10.29
12.53
13.59
13.05
11.15
8.64
6.40
5.04
4.65
4.84
5.04
4.75
3.79
2.37
0.88
-0.21
-0.59
-0.20
0.86
2.39
4.21
6.21
8.35
10.58
12.78
14.69
16.05
16.62
16.43
15.70
14.90
14.47
14.67
15.45
16.41
17.00
16.73
15.39
13.12
10.31
7.42
4.77
2.46
0.38
-1.68
-3.91
-6.46
-9.34
-12.46
-15.61
-18.52
-20.87
-22.39
-22.95
-22.66
-21.86
-21.11
-20.96
-21.81
-23.74
-26.44
-29.28
-31.56
-32.65
-32.28
-30.48
-27.61
-24.16
-20.59
-17.28
-14.47
-12.28
-10.66
-9.43
-8.27
-6.84
-4.93
-2.52
0.23
3.06
5.77
8.34
10.92
13.74
16.96
20.58
24.47
28.39
32.10
35.44
38.34
40.72
42.57
43.83
44.48
44.59
44.29
43.78
43.24
42.78
42.38
41.92
41.20
40.01
38.21
35.76
32.72
29.22
25.50
21.76
18.18
14.91
12.04
9.70
7.99
7.02
6.80
7.20
7.94
8.67
9.07
8.97
8.43
7.64
6.83
6.18
5.77
5.60
5.69
6.02
6.56
7.23
7.82
8.11
7.90
7.09
5.67
3.71
1.33
-1.33
-4.08
-6.67
-8.81
-10.25
-10.86
-10.65
-9.77
-8.44
-6.90
-5.38
-4.13
-3.30
-2.94
-2.94
-3.04
-3.01
-2.70
-2.19
-1.74
-1.66
-2.16
-3.25
-4.69
-6.11
-7.16
-7.63
-7.50
-6.92
-6.07
-5.08
-3.98
-2.75
-1.40
-0.06
1.07
1.78
2.00
1.81
1.42
1.03
0.77
0.68
0.73
0.92
1.27
1.82
2.56
3.44
4.38
5.28
6.07
6.73
7.26
7.67
7.99
8.16
8.10
7.68
6.78
5.35
3.48
1.33
-0.92
-3.22
-5.61
-8.25
-11.21
-14.40
-17.57
-20.27
-22.13
-22.86
-22.39
-20.82
-18.33
-15.19
-11.64
-7.99
-4.64
-2.01
-0.54
-0.48
-1.84
-4.31
-7.29
-10.03
-11.92
-12.60
-12.08
-10.63
-8.67
-6.65
-4.91
-3.68
-3.09
-3.14
-3.72
-4.63
-5.60
-6.38
-6.82
-6.80
-6.38
-5.67
-4.84
-4.09
-3.54
-3.27
-3.21
-3.24
-3.23
-3.10
-2.87
-2.61
-2.42
-2.33
-2.33
-2.42
-2.53
-2.66
-2.74
-2.70
-2.49
-2.05
-1.36
-0.45
0.61
1.75
2.88
3.83
4.43
4.48
3.84
2.49
0.53
-1.74
-4.01
-5.93
-7.28
-8.03
-8.29
-8.29
-8.28
-8.39
-8.64
-8.89
-8.96
-8.78
-8.34
-7.71
-6.94
-6.07
-5.10
-4.03
-2.94
-1.94
-1.08
-0.38
0.23
0.86
1.61
2.54
3.65
4.93
6.33
7.75
8.94
9.62
9.53
8.61
7.03
5.20
3.53
2.32
1.68
1.51
1.63
1.94
2.40
3.02
3.76
4.54
5.17
5.53
5.55
5.32
5.01
4.73
4.55
4.39
4.18
3.86
3.46
3.05
2.76
2.65
2.70
2.86
2.99
2.99
2.79
2.39
1.87
1.35
1.00
0.94
1.19
1.66
2.20
2.64
2.94
3.05
2.95
2.59
1.92
0.97
-0.09
-1.00
-1.49
-1.41
-0.80
0.13
1.12
1.90
2.31
2.29
1.87
1.14
0.24
-0.71
-1.60
-2.39
-3.09
-3.66
-4.08
-4.31
-4.33
-4.15
-3.87
-3.56
-3.24
-2.90
-2.52
-2.14
-1.80
-1.57
-1.40
-1.17
-0.77
-0.16
0.61
1.37
1.95
2.28
2.33
2.21
2.03
1.91
1.98
2.27
2.78
3.33
3.75
3.87
3.65
3.21
2.68
2.14
1.58
0.93
0.19
-0.56
-1.19
-1.65
-1.98
-2.33
-2.84
-3.51
-4.22
-4.86
-5.34
-5.70
-5.99
-6.21
-6.26
-6.00
-5.40
-4.59
-3.82
-3.31
-3.17
-3.36
-3.70
-4.00
-4.15
-4.11
-3.86
-3.42
-2.81
-2.11
-1.46
-1.04
-0.96
-1.23
-1.68
-2.06
-2.10
-1.66
-0.75
0.42
1.60
2.53
3.10
3.31
3.26
3.07
2.83
2.61
2.46
2.39
2.40
2.44
2.41
2.26
1.97
1.61
1.26
1.02
0.94
1.02
1.27
1.66
2.10
2.45
2.58
2.41
1.99
1.52
1.21
1.17
1.36
1.60
1.67
1.47
1.05
0.55
0.14
-0.12
-0.24
-0.29
-0.34
-0.40
-0.39
-0.23
0.11
0.62
1.11
1.42
1.39
1.05
0.55
0.13
-0.02
0.10
0.38
0.62
0.72
0.69
0.61
0.57
0.59
0.62
0.60
0.52
0.39
0.24
0.09
-0.04
-0.11
-0.09
0.04
0.24
0.42
0.47
0.31
-0.02
-0.41
-0.71
-0.82
-0.69
-0.40
-0.02
0.34
0.61
0.83
1.03
1.27
1.57
1.87
2.07
2.08
1.88
1.54
1.15
0.80
0.51
0.26
0.04
-0.12
-0.19
-0.13
0.03
0.18
0.22
0.12
-0.10
-0.38
-0.65
-0.88
-1.08
-1.25
-1.37
-1.47
-1.64
-1.96
-2.54
-3.35
-4.24
-5.01
-5.47
-5.57
-5.42
-5.18
-4.97
-4.80
-4.60
-4.29
-3.88
-3.43
-3.06
-2.81
-2.64
-2.44
-2.15
-1.74
-1.32
-1.01
-0.93
-1.09
-1.44
-1.84
-2.16
-2.33
-2.28
-2.01
-1.55
-0.97
-0.36
0.22
0.72
1.10
1.31
1.27
0.91
0.21
-0.78
-1.87
-2.83
-3.45
-3.64
-3.46
-3.06
-2.68
-2.48
-2.57
-2.93
-3.47
-4.06
-4.57
-4.91
-5.06
-5.06
-5.03
-5.09
-5.34
-5.89
-6.75
-7.90
-9.21
-10.44
-11.32
-11.61
-11.21
-10.26
-9.06
-8.08
-7.68
-8.11
-9.40
-11.41
-13.89
-16.60
-19.32
-21.91
-24.31
-26.55
-28.71
-30.94
-33.41
-36.22
-39.43
-43.01
-46.80
-50.59
-54.15
-57.25
-59.80
-61.80
-63.38
-64.68
-65.73
-66.40
-66.43
-65.55
-63.64
-60.78
-57.22
-53.21
-48.87
-44.17
-39.06
-33.66
-28.34
-23.64
-20.04
-17.77
-16.74
-16.57
-16.88
-17.38
-18.00
-18.87
-20.19
-22.20
-25.04
-28.80
-33.47
-38.97
-45.13
-51.72
-58.47
-64.93
-70.51
-74.54
-76.36
-75.55
-72.02
-66.07
-58.21
-49.02
-38.95
-28.33
-17.47
-6.71
3.47
12.48
19.83
25.27
28.95
31.41
33.43
35.75
38.88
42.89
47.46
52.04
56.10
59.28
61.44
62.66
63.06
62.79
61.89
60.32
58.07
55.13
51.59
47.55
43.13
38.44
33.60
28.70
23.82
19.05
14.37
9.66
4.60
-1.19
-8.05
-15.99
-24.53
-32.67
-39.08
-42.43
-41.86
-37.19
-29.00
-18.43
-6.75
4.91
15.81
25.58
34.02
41.03
46.50
50.37
52.72
53.88
54.37
54.77
55.57
57.01
59.03
61.38
63.74
65.90
67.79
69.42
70.80
71.85
72.37
72.19
71.20
69.51
67.31
64.80
62.12
59.29
56.32
53.24
50.19
47.31
44.68
42.23
39.77
37.06
33.94
30.34
26.32
22.01
17.63
13.50
9.98
7.50
6.40
6.79
8.52
11.16
14.17
17.04
19.49
21.52
23.29
25.05
26.87
28.70
30.31
31.48
32.13
32.33
32.27
32.12
31.99
31.82
31.51
30.95
30.12
29.05
27.82
26.52
25.17
23.79
22.34
20.80
19.13
17.34
15.44
13.48
11.50
9.53
7.55
5.52
3.39
1.12
-1.33
-3.97
-6.83
-9.93
-13.24
-16.69
-20.12
-23.28
-25.91
-27.79
-28.80
-28.90
-28.19
-26.82
-25.01
-22.99
-20.98
-19.15
-17.62
-16.41
-15.46
-14.63
-13.81
-12.92
-11.96
-11.03
-10.31
-9.96
-10.04
-10.47
-11.08
-11.69
-12.21
-12.71
-13.39
-14.47
-16.06
-18.11
-20.45
-22.93
-25.45
-28.07
-30.93
-34.15
-37.80
-41.90
-46.47
-51.59
-57.30
-63.50
-69.80
-75.57
-80.04
-82.53
-82.69
-80.51
-76.28
-70.40
-63.23
-55.07
-46.25
-37.17
-28.35
-20.25
-13.20
-7.20
-2.00
2.82
7.66
12.67
17.77
22.61
26.82
30.12
32.40
33.81
34.61
35.05
35.20
34.92
33.94
31.97
28.92
24.98
20.55
16.03
11.70
7.55
3.38
-1.14
-6.27
-12.21
-19.07
-26.92
-35.63
-44.78
-53.55
-60.71
-64.98
-65.41
-61.66
-54.19
-43.98
-32.20
-19.85
-7.60
4.14
15.03
24.70
32.75
38.92
43.22
46.00
47.83
49.29
50.82
52.61
54.64
56.78
58.88
60.78
62.35
63.43
63.83
63.40
62.04
59.80
56.85
53.49
49.97
46.40
42.73
38.73
34.14
28.79
22.74
16.27
9.76
3.61
-2.01
-7.17
-12.21
-17.66
-24.00
-31.53
-40.13
-49.17
-57.54
-63.87
-66.82
-65.56
-59.95
-50.61
-38.70
-25.50
-12.11
0.71
12.59
23.26
32.46
39.93
45.53
49.38
51.92
53.77
55.53
57.54
59.82
62.12
64.10
65.58
66.55
67.14
67.44
67.39
66.77
65.34
62.95
59.68
55.81
51.69
47.56
43.49
39.38
35.04
30.33
25.21
19.77
14.17
8.62
3.27
-1.80
-6.61
-11.29
-16.05
-21.22
-27.12
-34.00
-41.85
-50.27
-58.47
-65.37
-69.96
-71.59
-70.15
-66.06
-59.97
-52.52
-44.16
-35.19
-25.90
-16.69
-8.10
-0.61
5.56
10.52
14.65
18.45
22.26
26.21
30.22
34.06
37.48
40.32
42.52
44.08
44.98
45.12
44.38
42.64
39.95
36.51
32.68
28.81
25.09
21.45
17.58
13.13
7.90
1.97
-4.29
-10.40
-15.95
-20.80
-25.15
-29.42
-34.13
-39.75
-46.58
-54.63
-63.53
-72.48
-80.26
-85.48
-86.93
-83.94
-76.59
-65.68
-52.42
-38.07
-23.58
-9.60
3.48
15.30
25.47
33.58
39.43
43.16
45.35
46.78
48.21
50.10
52.43
54.84
56.86
58.15
58.64
58.53
58.10
57.54
56.83
55.77
54.09
51.62
48.35
44.41
40.05
35.56
31.14
26.91
22.81
18.64
14.12
9.01
3.21
-3.13
-9.69
-16.09
-22.01
-27.38
-32.38
-37.39
-42.85
-49.16
-56.56
-64.98
-74.00
-82.76
-90.01
-94.36
-94.71
-90.61
-82.42
-71.27
-58.58
-45.63
-33.19
-21.53
-10.61
-0.38
9.01
17.30
24.26
29.90
34.50
38.51
42.33
46.16
49.91
53.30
56.03
57.91
58.99
59.48
59.63
59.54
59.12
58.09
56.13
53.09
49.09
44.43
39.53
34.71
30.05
25.43
20.61
15.41
9.85
4.11
-1.46
-6.60
-11.16
-15.31
-19.42
-23.97
-29.42
-36.05
-43.92
-52.70
-61.66
-69.72
-75.52
-77.77
-75.67
-69.13
-58.86
-46.11
-32.23
-18.26
-4.80
7.86
19.46
29.60
37.69
43.24
46.14
46.80
46.09
45.02
44.44
44.72
45.80
47.23
48.55
49.42
49.76
49.70
49.42
48.97
48.26
47.01
44.97
41.99
38.15
33.75
29.16
24.71
20.54
16.55
12.55
8.30
3.73
-1.05
-5.78
-10.22
-14.25
-17.97
-21.63
-25.52
-29.91
-34.94
-40.59
-46.70
-52.93
-58.67
-63.15
-65.58
-65.36
-62.28
-56.60
-48.95
-40.12
-30.82
-21.57
-12.68
-4.40
3.05
9.40
14.45
18.16
20.70
22.44
23.81
25.19
26.73
28.41
30.04
31.43
32.39
32.85
32.78
32.22
31.17
29.65
27.69
25.33
22.64
19.68
16.45
12.92
9.06
4.93
0.64
-3.64
-7.78
-11.80
-15.82
-20.05
-24.65
-29.72
-35.28
-41.29
-47.65
-54.16
-60.35
-65.51
-68.68
-69.00
-65.97
-59.68
-50.77
-40.25
-29.15
-18.28
-8.17
0.85
8.53
14.62
19.00
21.70
23.07
23.63
24.00
24.62
25.75
27.33
29.14
30.90
32.30
33.12
33.25
32.64
31.30
29.30
26.73
23.69
20.31
16.68
12.83
8.74
4.32
-0.51
-5.76
-11.34
-17.04
-22.62
-27.91
-32.88
-37.65
-42.55
-48.01
-54.40
-61.89
-70.13
-78.20
-84.70
-87.97
-86.73
-80.47
-69.67
-55.62
-39.99
-24.32
-9.66
3.46
14.83
24.35
31.87
37.27
40.63
42.25
42.70
42.61
42.44
42.43
42.60
42.83
43.06
43.26
43.45
43.54
43.34
42.52
40.82
38.06
34.31
29.83
24.98
20.04
15.14
10.22
5.05
-0.55
-6.63
-13.04
-19.46
-25.56
-31.13
-36.23
-41.19
-46.49
-52.63
-59.94
-68.38
-77.40
-85.95
-92.53
-95.62
-94.04
-87.36
-76.06
-61.38
-44.90
-28.10
-12.10
2.41
15.03
25.46
33.43
38.83
41.86
43.04
43.15
42.96
42.99
43.40
44.06
44.79
45.41
45.93
46.35
46.60
46.50
45.77
44.19
41.71
38.48
34.77
30.89
27.00
23.12
19.11
14.73
9.78
4.17
-2.00
-8.41
-14.64
-20.34
-25.40
-30.00
-34.64
-39.97
-46.60
-54.81
-64.29
-74.04
-82.45
-87.66
-88.11
-83.05
-72.83
-58.76
-42.64
-26.23
-10.79
3.06
15.14
25.42
33.85
40.31
44.75
47.33
48.51
48.86
48.96
49.21
49.77
50.60
51.61
52.64
53.56
54.21
54.40
53.88
52.39
49.80
46.06
41.35
35.98
30.34
24.77
19.45
14.32
9.18
3.79
-1.95
-7.93
-13.85
-19.41
-24.44
-29.03
-33.50
-38.37
-44.22
-51.40
-59.88
-68.99
-77.42
-83.41
-85.23
-81.74
-72.87
-59.61
-43.75
-27.22
-11.55
2.42
14.43
24.53
32.69
38.78
42.66
44.44
44.60
43.92
43.22
43.06
43.54
44.45
45.33
45.87
45.92
45.52
44.77
43.68
42.17
40.11
37.40
34.07
30.18
25.88
21.24
16.28
10.97
5.32
-0.63
-6.74
-12.80
-18.56
-23.84
-28.56
-32.84
-36.99
-41.47
-46.82
-53.40
-61.18
-69.55
-77.23
-82.56
-83.91
-80.29
-71.66
-58.96
-43.80
-27.90
-12.70
0.94
12.59
22.13
29.45
34.52
37.36
38.23
37.64
36.27
34.84
33.91
33.78
34.39
35.44
36.45
36.95
36.63
35.40
33.43
31.03
28.49
25.99
23.45
20.66
17.33
13.30
8.52
3.16
-2.51
-8.22
-13.77
-19.07
-24.15
-29.15
-34.27
-39.80
-46.02
-53.11
-60.98
-69.03
-76.14
-80.79
-81.50
-77.32
-68.23
-55.18
-39.80
-23.87
-8.80
4.61
16.06
25.45
32.64
37.41
39.65
39.59
37.89
35.56
33.61
32.74
33.13
34.43
35.98
37.09
37.32
36.53
34.90
32.72
30.25
27.57
24.53
20.93
16.56
11.43
5.72
-0.23
-6.07
-11.58
-16.75
-21.75
-26.87
-32.32
-38.29
-44.93
-52.33
-60.50
-69.09
-77.22
-83.47
-86.11
-83.72
-75.69
-62.60
-46.07
-28.21
-10.97
4.42
17.49
28.29
36.95
43.42
47.53
49.20
48.77
46.94
44.67
42.79
41.71
41.39
41.47
41.52
41.25
40.54
39.43
37.97
36.14
33.90
31.19
27.98
24.26
20.06
15.36
10.12
4.33
-1.97
-8.64
-15.41
-21.94
-27.95
-33.31
-38.14
-42.80
-47.84
-53.79
-61.02
-69.54
-78.76
-87.45
-93.85
-96.14
-92.96
-83.94
-69.90
-52.55
-33.95
-15.84
0.66
15.10
27.34
37.32
44.82
49.67
51.95
52.14
51.06
49.59
48.40
47.76
47.58
47.55
47.42
47.07
46.52
45.80
44.83
43.43
41.31
38.31
34.40
29.81
24.80
19.66
14.46
9.14
3.50
-2.56
-9.02
-15.63
-22.03
-27.87
-32.98
-37.45
-41.61
-46.02
-51.30
-57.99
-66.24
-75.60
-84.80
-91.98
-95.08
-92.54
-83.90
-69.99
-52.61
-33.90
-15.68
0.94
15.49
27.85
37.90
45.41
50.20
52.36
52.41
51.17
49.54
48.24
47.57
47.49
47.72
47.98
48.08
47.92
47.52
46.85
45.81
44.20
41.84
38.59
34.52
29.85
24.90
19.94
15.05
10.12
4.89
-0.84
-7.05
-13.47
-19.67
-25.25
-30.01
-34.13
-38.06
-42.45
-47.93
-54.95
-63.50
-72.93
-81.89
-88.51
-90.85
-87.57
-78.38
-64.24
-46.99
-28.74
-11.24
4.50
18.14
29.64
38.94
45.84
50.13
51.91
51.73
50.49
49.20
48.51
48.61
49.23
49.92
50.36
50.46
50.34
50.16
49.89
49.30
48.02
45.68
42.14
37.51
32.21
26.75
21.55
16.78
12.25
7.58
2.36
-3.58
-10.08
-16.68
-22.85
-28.26
-32.92
-37.21
-41.73
-47.12
-53.81
-61.87
-70.81
-79.53
-86.41
-89.61
-87.68
-79.99
-67.14
-50.69
-32.73
-15.20
0.59
14.07
25.19
34.07
40.74
45.10
47.15
47.17
45.76
43.75
41.90
40.68
40.19
40.22
40.46
40.62
40.53
40.14
39.39
38.19
36.42
33.93
30.69
26.76
22.29
17.44
12.25
6.71
0.76
-5.56
-12.10
-18.58
-24.71
-30.36
-35.57
-40.59
-45.78
-51.56
-58.30
-66.14
-74.86
-83.62
-91.01
-95.27
-94.84
-88.91
-77.75
-62.68
-45.55
-28.17
-11.85
2.68
15.12
25.34
33.16
38.46
41.28
41.96
41.17
39.72
38.39
37.72
37.85
38.58
39.44
39.90
39.64
38.59
36.97
35.05
33.04
30.85
28.19
24.65
19.99
14.27
7.87
1.35
-4.76
-10.23
-15.19
-20.01
-25.19
-31.18
-38.26
-46.48
-55.54
-64.68
-72.64
-77.87
-78.84
-74.60
-65.19
-51.64
-35.72
-19.30
-3.84
9.78
21.23
30.33
36.96
40.90
42.18
41.18
38.69
35.79
33.42
32.17
32.06
32.64
33.27
33.36
32.59
31.01
28.88
26.56
24.23
21.81
18.98
15.32
10.56
4.72
-1.87
-8.66
-15.16
-21.10
-26.49
-31.60
-36.85
-42.59
-49.17
-56.78
-65.38
-74.50
-83.08
-89.54
-92.13
-89.53
-81.36
-68.39
-52.26
-34.94
-18.04
-2.58
11.07
22.80
32.45
39.70
44.24
46.05
45.57
43.70
41.46
39.73
38.96
39.14
39.88
40.69
41.13
40.94
40.05
38.55
36.58
34.26
31.68
28.83
25.66
22.05
17.94
13.37
8.51
3.59
-1.20
-5.86
-10.51
-15.39
-20.75
-26.78
-33.58
-41.22
-49.63
-58.45
-66.83
-73.38
-76.42
-74.57
-67.27
-55.09
-39.61
-22.86
-6.65
7.83
20.11
30.08
37.73
43.01
45.91
46.65
45.78
44.14
42.51
41.40
40.93
40.92
41.08
41.14
40.95
40.44
39.59
38.29
36.50
34.15
31.26
27.90
24.13
20.05
15.70
11.16
6.49
1.76
-2.99
-7.68
-12.31
-16.84
-21.28
-25.69
-30.16
-34.96
-40.39
-46.71
-53.90
-61.41
-68.10
-72.38
-72.69
-68.04
-58.41
-44.84
-29.10
-13.11
1.59
14.08
24.01
31.36
36.24
38.84
39.54
38.94
37.83
37.00
36.94
37.70
38.96
40.20
40.98
41.07
40.52
39.46
38.03
36.26
34.07
31.40
28.24
24.66
20.81
16.79
12.63
8.28
3.63
-1.38
-6.71
-12.15
-17.45
-22.34
-26.67
-30.51
-34.06
-37.71
-41.82
-46.76
-52.75
-59.76
-67.32
-74.40
-79.48
-80.90
-77.45
-68.84
-55.89
-40.27
-23.87
-8.33
5.35
16.75
25.70
32.15
36.09
37.72
37.57
36.49
35.38
34.94
35.38
36.48
37.76
38.72
39.01
38.58
37.54
36.12
34.47
32.66
30.66
28.39
25.80
22.89
19.71
16.30
12.72
9.04
5.37
1.81
-1.58
-4.85
-8.18
-11.80
-15.89
-20.48
-25.44
-30.53
-35.43
-39.78
-43.16
-45.07
-44.98
-42.45
-37.28
-29.67
-20.27
-10.01
0.08
9.08
16.37
21.70
25.15
27.04
27.81
27.85
27.52
27.03
26.53
26.07
25.66
25.27
24.79
24.06
22.94
21.33
19.28
16.91
14.39
11.87
9.42
6.99
4.47
1.67
-1.52
-5.12
-9.03
-13.07
-17.00
-20.64
-23.99
-27.20
-30.58
-34.46
-39.09
-44.57
-50.78
-57.36
-63.64
-68.67
-71.31
-70.48
-65.48
-56.33
-43.79
-29.26
-14.34
-0.43
11.55
21.19
28.45
33.50
36.56
37.93
38.01
37.30
36.29
35.39
34.78
34.43
34.18
33.80
33.13
32.08
30.68
29.07
27.41
25.87
24.58
23.56
22.74
21.90
20.82
19.29
17.21
14.67
11.89
9.13
6.59
4.33
2.20
-0.02
-2.59
-5.70
-9.37
-13.52
-17.93
-22.28
-26.19
-29.24
-31.04
-31.34
-30.03
-27.27
-23.38
-18.83
-14.11
-9.58
-5.47
-1.85
1.37
4.30
6.98
9.41
11.50
13.21
14.56
15.71
16.81
18.01
19.32
20.65
21.87
22.85
23.48
23.70
23.44
22.60
21.13
19.10
16.74
14.36
12.22
10.33
8.44
6.07
2.80
-1.52
-6.68
-12.16
-17.40
-22.07
-26.17
-30.00
-34.07
-38.96
-45.16
-52.94
-62.10
-71.73
-80.22
-85.47
-85.59
-79.56
-67.70
-51.63
-33.70
-16.16
-0.51
12.60
23.19
31.49
37.65
41.69
43.76
44.25
43.83
43.22
42.97
43.31
44.13
45.14
46.00
46.51
46.58
46.15
45.20
43.63
41.30
38.09
34.00
29.11
23.70
18.06
12.43
6.90
1.40
-4.17
-9.87
-15.61
-21.22
-26.45
-31.19
-35.50
-39.63
-43.95
-48.85
-54.65
-61.41
-68.83
-76.09
-81.92
-84.80
-83.38
-76.99
-65.91
-51.37
-35.16
-19.09
-4.47
8.05
18.38
26.69
33.09
37.56
40.06
40.74
40.07
38.76
37.55
36.97
37.13
37.86
38.77
39.51
39.87
39.76
39.17
38.06
36.36
34.06
31.18
27.83
24.15
20.24
16.14
11.76
7.03
1.88
-3.65
-9.43
-15.21
-20.75
-25.88
-30.59
-35.09
-39.76
-45.04
-51.28
-58.48
-66.16
-73.24
-78.23
-79.60
-76.23
-67.90
-55.41
-40.33
-24.49
-9.47
3.75
14.81
23.72
30.58
35.42
38.26
39.23
38.68
37.20
35.40
33.84
32.82
32.40
32.46
32.75
33.05
33.21
33.19
33.01
32.68
32.19
31.44
30.35
28.83
26.93
24.78
22.58
20.56
18.86
17.54
16.60
15.94
15.50
15.20
15.02
14.92
14.86
14.74
14.48
14.01
13.40
12.80
12.38
12.23
12.25
12.26
12.02
11.39
10.40
9.18
7.94
6.82
5.91
5.25
4.81
4.43
3.89
2.90
1.26
-1.08
-3.93
-6.96
-9.84
-12.34
-14.43
-16.18
-17.74
-19.17
-20.51
-21.77
-23.02
-24.33
-25.77
-27.39
-29.20
-31.23
-33.46
-35.90
-38.44
-41.02
-43.56
-46.10
-48.84
-51.98
-55.66
-59.76
-63.83
-67.21
-69.21
-69.33
-67.41
-63.64
-58.45
-52.39
-45.94
-39.56
-33.55
-28.09
-23.23
-18.83
-14.61
-10.28
-5.61
-0.59
4.57
9.50
13.86
17.38
19.98
21.73
22.66
22.77
21.92
19.93
16.74
12.49
7.51
2.29
-2.75
-7.40
-11.70
-15.93
-20.50
-25.81
-32.22
-39.92
-48.80
-58.24
-67.10
-73.73
-76.40
-73.89
-65.92
-53.37
-37.95
-21.68
-6.17
7.60
19.35
29.08
36.76
42.25
45.37
46.22
45.32
43.55
41.87
40.97
41.06
41.83
42.69
43.07
42.64
41.43
39.74
37.91
36.16
34.38
32.24
29.27
25.14
19.83
13.70
7.31
1.29
-4.01
-8.65
-13.03
-17.77
-23.47
-30.51
-38.98
-48.55
-58.42
-67.29
-73.52
-75.53
-72.26
-63.61
-50.54
-34.78
-18.25
-2.51
11.57
23.68
33.80
41.87
47.67
51.03
52.01
51.14
49.25
47.32
46.08
45.85
46.42
47.26
47.75
47.45
46.22
44.29
41.99
39.65
37.32
34.81
31.71
27.67
22.58
16.65
10.35
4.17
-1.53
-6.68
-11.51
-16.35
-21.58
-27.51
-34.38
-42.29
-51.12
-60.30
-68.71
-74.73
-76.71
-73.47
-64.83
-51.73
-35.93
-19.42
-3.79
10.02
21.69
31.16
38.38
43.17
45.44
45.43
43.75
41.37
39.27
38.16
38.26
39.33
40.83
42.20
43.03
43.17
42.66
41.64
40.19
38.29
35.86
32.77
28.91
24.25
18.83
12.79
6.39
-0.07
-6.28
-12.03
-17.29
-22.24
-27.18
-32.52
-38.63
-45.76
-53.88
-62.50
-70.57
-76.54
-78.69
-75.67
-67.08
-53.67
-37.19
-19.81
-3.45
10.65
21.99
30.59
36.65
40.34
41.83
41.42
39.58
36.94
34.12
31.62
29.76
28.67
28.30
28.48
28.89
29.10
28.73
27.51
25.44
22.74
19.71
16.55
13.27
9.68
5.51
0.69
-4.60
-9.84
-14.38
-17.70
-19.66
-20.68
-21.62
-23.71
-28.32
-36.82
-50.45
-69.88
-94.79
-123.27
-151.74
-175.49
-189.82
-191.41
-179.33
-155.13
-122.11
-84.08
-44.35
-5.15
32.17
66.70
97.53
123.73
144.56
159.74
169.71
175.49
178.36
179.47
179.60
179.01
177.59
175.03
171.02
165.29
157.64
147.90
135.99
122.20
107.14
91.64
76.12
60.02
41.56
18.09
-13.07
-53.51
-103.11
-159.66
-219.22
-276.64
-326.17
-361.89
-378.63
-373.12
-345.55
-300.39
-245.96
-192.35
-148.54
-119.95
-107.57
-108.81
-119.21
-133.96
-148.48
-158.29
-158.90
-146.44
-119.01
-77.94
-28.15
23.22
69.06
104.45
127.89
140.84
146.50
148.34
149.06
150.21
152.38
155.56
159.33
163.03
165.86
166.95
165.55
161.20
154.08
144.95
134.92
125.13
116.31
108.65
101.82
95.24
88.44
81.38
74.52
68.62
64.39
61.99
60.77
59.38
56.19
49.96
40.42
28.45
15.73
4.08
-5.25
-12.01
-16.90
-21.14
-25.87
-31.72
-38.60
-45.80
-52.17
-56.44
-57.48
-54.56
-47.55
-37.00
-23.94
-9.56
5.02
19.11
32.47
45.24
57.66
69.92
82.00
93.58
104.11
112.87
119.17
122.52
122.83
120.54
116.60
112.33
109.07
107.79
108.83
111.81
115.75
119.39
121.63
121.80
119.88
116.35
112.01
107.58
103.53
99.91
96.49
92.90
88.78
83.83
77.83
70.66
62.32
52.90
42.49
31.03
18.17
3.39
-13.57
-32.11
-50.38
-65.42
-73.95
-73.57
-63.86
-46.73
-25.98
-6.20
8.58
15.85
15.12
7.78
-3.46
-15.20
-24.14
-27.85
-25.55
-18.68
-10.64
-5.68
-7.08
-15.82
-30.16
-46.86
-63.14
-78.34
-94.19
-113.52
-138.21
-167.61
-198.32
-225.44
-244.56
-253.36
-252.08
-242.81
-228.17
-210.15
-189.71
-167.00
-142.04
-115.44
-88.73
-64.02
-43.33
-27.78
-17.23
-10.46
-5.89
-2.32
0.70
2.89
3.74
2.86
0.37
-3.10
-6.61
-9.17
-10.16
-9.59
-8.19
-7.31
-8.53
-13.22
-22.33
-36.29
-54.98
-77.58
-102.23
-125.78
-143.86
-151.76
-145.85
-125.09
-91.82
-51.40
-10.68
23.93
48.18
60.63
62.43
56.47
46.37
35.68
27.34
23.33
24.42
30.32
40.01
52.14
65.34
78.31
89.61
97.60
100.41
96.31
83.98
62.71
32.74
-4.38
-45.35
-85.21
-117.90
-137.81
-141.62
-129.57
-105.56
-75.85
-46.83
-23.16
-6.79
2.72
7.15
8.48
8.26
7.50
6.85
6.88
8.04
10.54
14.18
18.29
21.83
23.91
24.12
22.85
21.12
20.14
20.70
22.80
25.54
27.62
27.96
26.21
22.92
19.27
16.53
15.51
16.27
18.18
20.26
21.58
21.59
20.27
18.07
15.69
13.96
13.62
15.25
19.10
25.05
32.55
40.64
48.23
54.43
58.71
61.13
62.19
62.53
62.52
62.02
60.34
56.64
50.38
41.75
31.65
21.42
12.22
4.63
-1.57
-7.05
-12.51
-18.26
-24.06
-29.28
-33.35
-36.02
-37.44
-38.07
-38.41
-38.77
-39.18
-39.44
-39.30
-38.54
-37.14
-35.21
-32.98
-30.63
-28.20
-25.62
-22.68
-19.21
-15.16
-10.62
-5.79
-0.92
3.72
7.94
11.52
14.30
16.14
16.99
16.98
16.43
15.78
15.52
15.91
16.94
18.29
19.47
20.00
19.60
18.29
16.38
14.36
12.76
11.97
12.20
13.38
15.26
17.47
19.69
21.64
23.18
24.33
25.19
25.91
26.64
27.47
28.49
29.73
31.12
32.46
33.27
32.88
30.53
25.55
17.64
7.05
-5.43
-18.65
-31.46
-43.13
-53.66
-63.78
-74.61
-87.33
-102.70
-121.02
-142.07
-165.22
-189.30
-212.36
-231.53
-243.38
-244.95
-234.95
-214.74
-188.24
-160.71
-137.00
-119.94
-109.72
-104.46
-101.46
-98.45
-94.24
-88.69
-82.23
-75.32
-68.27
-61.27
-54.54
-48.42
-43.32
-39.55
-37.25
-36.36
-36.66
-37.97
-40.24
-43.72
-48.90
-56.42
-66.72
-79.65
-94.14
-108.07
-118.60
-122.90
-119.02
-106.65
-87.27
-63.72
-39.23
-16.49
3.00
18.92
31.57
41.28
48.04
51.58
51.75
49.00
44.45
39.68
36.11
34.60
35.14
36.99
39.08
40.43
40.48
39.08
36.39
32.68
28.19
23.09
17.47
11.38
4.70
-2.79
-11.41
-21.31
-32.18
-43.02
-52.17
-57.71
-57.93
-51.91
-39.73
-22.48
-1.85
20.18
41.71
61.07
76.97
88.56
95.57
98.40
98.07
95.98
93.59
92.04
91.85
92.79
94.05
94.53
93.32
89.98
84.72
78.17
71.12
64.18
57.52
50.91
43.79
35.49
25.50
13.76
0.91
-11.61
-21.70
-27.13
-26.15
-18.10
-3.62
15.58
37.23
59.09
79.33
96.55
109.68
117.95
120.94
118.76
112.23
102.71
91.89
81.26
71.78
63.73
56.83
50.50
44.22
37.75
31.18
24.85
19.28
14.99
12.45
11.88
13.15
15.66
18.50
20.84
22.46
24.15
27.75
35.44
48.85
68.12
91.68
116.72
140.14
159.45
173.20
181.02
183.38
181.38
176.60
170.78
165.44
161.20
157.53
152.97
145.96
135.89
123.55
110.94
100.23
92.71
88.14
85.00
81.36
75.81
68.02
58.66
48.87
39.63
31.35
23.80
16.37
8.49
-0.13
-9.37
-18.77
-27.73
-35.74
-42.59
-48.38
-53.40
-57.92
-61.95
-65.14
-66.93
-66.77
-64.51
-60.40
-54.99
-48.87
-42.34
-35.43
-27.96
-19.90
-11.49
-3.30
4.09
10.22
15.01
18.72
21.75
24.51
27.22
29.91
32.49
34.87
36.99
38.92
40.80
42.77
44.81
46.72
48.12
48.68
48.48
48.22
49.15
52.78
60.33
72.50
89.24
109.76
132.46
155.05
174.60
188.06
192.97
188.10
173.80
151.65
123.76
92.19
58.69
24.88
-7.46
-36.52
-60.97
-80.42
-95.76
-108.75
-121.26
-134.48
-148.57
-162.69
-175.47
-185.81
-193.45
-199.25
-204.80
-211.50
-219.57
-227.54
-232.77
-232.71
-226.41
-214.99
-200.97
-186.67
-172.81
-158.29
-141.23
-120.60
-97.24
-73.73
-53.09
-37.45
-27.23
-21.48
-18.73
-17.83
-18.28
-19.93
-22.71
-26.39
-30.75
-35.88
-42.26
-50.54
-61.03
-73.13
-85.12
-94.39
-98.12
-94.22
-82.15
-63.18
-40.07
-16.19
5.45
22.99
35.90
44.73
50.48
54.10
56.25
57.28
57.49
57.24
56.91
56.74
56.67
56.36
55.32
53.29
50.31
46.73
42.92
39.06
34.90
29.99
23.94
16.89
9.60
3.33
-0.59
-1.27
1.45
6.87
13.77
20.81
26.93
31.52
34.46
35.87
35.94
34.87
32.84
30.16
27.18
24.34
21.99
20.23
18.88
17.57
15.87
13.51
10.45
6.90
3.19
-0.39
-3.73
-6.94
-10.27
-14.04
-18.52
-23.87
-30.18
-37.33
-44.89
-52.01
-57.48
-60.00
-58.65
-53.31
-44.77
-34.50
-24.11
-14.79
-7.10
-0.95
3.93
7.72
10.28
11.31
10.53
7.92
3.79
-1.31
-6.84
-12.34
-17.55
-22.45
-27.11
-31.68
-36.38
-41.42
-47.04
-53.46
-60.81
-69.13
-78.39
-88.45
-99.13
-110.34
-122.04
-134.28
-147.02
-159.95
-172.26
-182.67
-189.57
-191.43
-187.24
-176.80
-160.72
-140.23
-116.74
-91.60
-65.87
-40.44
-16.06
6.55
26.72
44.04
58.53
70.63
81.16
90.93
100.51
109.94
118.77
126.27
131.79
135.02
136.09
135.49
133.73
131.13
127.63
122.85
116.29
107.55
96.59
83.75
69.62
54.83
39.89
25.07
10.45
-4.07
-18.70
-33.75
-49.56
-66.21
-83.21
-99.23
-112.18
-119.69
-119.81
-111.72
-95.98
-74.37
-49.25
-23.00
2.45
25.63
45.40
60.85
71.35
76.74
77.56
75.03
70.77
66.33
62.76
60.44
59.11
58.23
57.29
56.08
54.67
53.27
52.00
50.78
49.27
47.09
43.86
39.41
33.79
27.22
19.99
12.37
4.48
-3.83
-13.00
-23.64
-36.30
-51.02
-67.00
-82.37
-94.45
-100.44
-98.32
-87.57
-69.46
-46.59
-21.99
1.76
23.06
41.32
56.51
68.68
77.78
83.69
86.48
86.58
84.80
82.04
79.05
76.23
73.61
71.00
68.25
65.31
62.24
59.16
56.02
52.53
48.17
42.41
34.93
25.84
15.68
5.23
-4.74
-13.82
-22.06
-30.02
-38.63
-48.77
-60.96
-74.96
-89.46
-102.26
-110.67
-112.30
-105.81
-91.31
-70.34
-45.26
-18.58
7.64
32.07
53.85
72.42
87.23
97.80
103.94
105.97
104.74
101.46
97.34
93.21
89.33
85.50
81.33
76.58
71.32
65.94
60.80
56.00
51.14
45.52
38.36
29.25
18.40
6.57
-5.18
-15.98
-25.46
-33.81
-41.71
-50.07
-59.76
-71.30
-84.63
-98.86
-112.24
-122.36
-126.68
-123.30
-111.60
-92.48
-68.08
-41.12
-14.01
11.53
34.61
54.77
71.65
84.74
93.55
97.91
98.23
95.50
91.06
86.26
82.02
78.71
76.17
73.87
71.23
67.88
63.70
58.87
53.66
48.26
42.59
36.31
28.97
20.22
10.04
-1.14
-12.66
-23.74
-33.87
-42.94
-51.28
-59.48
-68.29
-78.34
-90.01
-103.18
-117.11
-130.25
-140.46
-145.33
-142.98
-132.65
-114.99
-91.97
-66.16
-40.03
-15.35
6.82
25.95
41.56
53.08
59.94
61.93
59.51
53.79
46.40
38.95
32.73
28.42
26.21
25.93
27.28
29.96
33.68
38.11
42.75
46.95
49.93
50.94
49.37
44.99
37.99
28.99
18.92
8.72
-0.78
-9.08
-16.06
-21.96
-27.26
-32.63
-38.67
-45.63
-53.18
-60.20
-64.97
-65.57
-60.52
-49.27
-32.37
-11.34
11.87
35.31
57.26
76.35
91.43
101.62
106.49
106.23
101.82
94.90
87.32
80.64
75.68
72.39
69.97
67.37
63.72
58.71
52.58
45.96
39.47
33.45
27.77
21.95
15.38
7.66
-1.23
-10.90
-20.66
-29.80
-37.80
-44.50
-50.13
-55.29
-60.76
-67.32
-75.43
-84.86
-94.53
-102.56
-106.64
-104.72
-95.64
-79.60
-58.14
-33.68
-8.79
14.35
34.35
50.56
62.85
71.40
76.66
79.26
80.05
79.92
79.59
79.33
78.93
77.84
75.46
71.52
66.19
60.00
53.56
47.20
40.85
34.06
26.30
17.25
6.98
-4.09
-15.35
-26.22
-36.29
-45.48
-54.06
-62.63
-71.96
-82.66
-94.76
-107.41
-118.83
-126.81
-129.44
-125.78
-116.19
-102.06
-85.09
-66.71
-47.77
-28.67
-9.86
7.92
23.53
35.86
44.17
48.44
49.33
47.88
45.15
41.91
38.58
35.28
32.06
28.93
26.03
23.52
21.57
20.28
19.58
19.26
19.03
18.53
17.53
15.97
13.95
11.61
9.08
6.32
3.33
0.28
-2.32
-3.63
-2.70
1.14
7.95
17.10
27.39
37.43
45.94
51.98
54.98
54.64
50.85
43.87
34.30
23.24
12.04
2.01
-6.04
-11.96
-16.29
-19.87
-23.48
-27.53
-32.00
-36.58
-40.99
-45.11
-49.09
-53.29
-58.16
-64.16
-71.71
-81.08
-92.24
-104.64
-117.10
-127.78
-134.54
-135.46
-129.42
-116.52
-98.07
-76.20
-53.24
-31.15
-11.24
5.72
19.31
29.17
34.99
36.73
34.82
30.31
24.68
19.42
15.57
13.42
12.47
11.79
10.41
7.76
3.81
-1.02
-6.11
-10.98
-15.42
-19.57
-23.77
-28.46
-34.14
-41.31
-50.25
-60.80
-72.02
-82.10
-88.67
-89.44
-83.08
-69.68
-50.80
-28.91
-6.54
14.41
32.89
48.46
60.91
69.95
75.25
76.73
74.79
70.44
64.98
59.67
55.30
52.05
49.55
47.09
43.99
39.79
34.43
28.15
21.38
14.54
7.88
1.39
-5.15
-12.07
-19.75
-28.50
-38.52
-49.64
-61.16
-71.66
-79.16
-81.57
-77.34
-66.13
-48.97
-28.05
-5.99
14.86
32.96
47.60
58.68
66.30
70.55
71.55
69.58
65.30
59.68
53.80
48.55
44.42
41.41
39.10
36.89
34.24
30.79
26.49
21.47
15.98
10.26
4.39
-1.64
-7.94
-14.62
-21.83
-29.74
-38.59
-48.53
-59.34
-70.12
-79.17
-84.27
-83.34
-75.23
-60.26
-40.22
-17.82
4.19
23.65
39.40
51.07
58.78
62.80
63.51
61.44
57.40
52.45
47.60
43.63
40.78
38.82
37.27
35.59
33.51
30.98
28.09
24.89
21.31
17.12
12.13
6.30
-0.15
-6.80
-13.18
-18.97
-24.15
-29.04
-34.31
-40.76
-48.96
-58.83
-69.29
-78.36
-83.54
-82.68
-74.75
-60.29
-41.18
-20.04
0.58
18.78
33.49
44.24
50.97
53.85
53.34
50.30
45.92
41.47
37.99
35.96
35.19
35.07
34.83
33.89
32.07
29.58
26.80
24.10
21.55
18.94
15.82
11.76
6.57
0.42
-6.21
-12.75
-18.73
-24.00
-28.74
-33.39
-38.56
-44.77
-52.29
-60.89
-69.66
-77.06
-81.09
-79.96
-72.64
-59.35
-41.57
-21.64
-2.04
15.25
29.05
38.92
44.87
47.16
46.16
42.59
37.53
32.37
28.44
26.56
26.79
28.36
30.13
31.04
30.59
28.88
26.45
23.87
21.44
19.00
16.09
12.22
7.13
1.00
-5.64
-12.11
-17.81
-22.52
-26.45
-30.14
-34.25
-39.41
-45.96
-53.83
-62.43
-70.57
-76.59
-78.71
-75.57
-66.71
-52.83
-35.70
-17.57
-0.63
13.52
24.04
30.76
33.96
34.18
32.19
28.97
25.69
23.46
23.06
24.72
28.07
32.29
36.44
39.77
41.91
42.91
42.98
42.33
40.91
38.54
34.96
30.05
24.04
17.38
10.70
4.49
-0.95
-5.70
-10.06
-14.51
-19.61
-25.88
-33.62
-42.69
-52.19
-60.51
-65.68
-65.91
-60.38
-49.60
-35.28
-19.78
-5.37
6.36
14.66
19.49
21.17
20.16
17.03
12.52
7.56
3.10
-0.12
-1.84
-2.33
-2.18
-2.06
-2.37
-3.11
-4.03
-4.82
-5.45
-6.22
-7.71
-10.42
-14.60
-19.98
-25.97
-31.87
-37.14
-41.62
-45.59
-49.60
-54.29
-60.15
-67.22
-74.95
-82.11
-86.93
-87.53
-82.54
-71.56
-55.43
-36.00
-15.62
3.53
19.86
32.60
41.62
47.24
49.96
50.44
49.39
47.58
45.71
44.30
43.60
43.54
43.91
44.41
44.80
44.89
44.52
43.55
41.81
39.16
35.61
31.27
26.37
21.19
15.94
10.71
5.38
-0.28
-6.69
-14.28
-23.31
-33.63
-44.35
-53.85
-60.09
-61.21
-56.21
-45.46
-30.61
-14.09
1.65
14.82
24.55
30.86
34.24
35.34
34.74
32.97
30.54
28.01
25.86
24.45
23.86
23.92
24.30
24.60
24.53
23.87
22.54
20.47
17.64
14.05
9.79
5.05
0.04
-5.00
-9.98
-15.00
-20.38
-26.56
-33.88
-42.32
-51.22
-59.18
-64.34
-64.89
-59.75
-49.02
-34.06
-17.06
-0.36
14.21
25.62
33.62
38.36
40.09
39.08
35.69
30.51
24.45
18.52
13.58
10.05
7.86
6.57
5.53
4.20
2.18
-0.69
-4.33
-8.54
-12.98
-17.35
-21.44
-25.30
-29.22
-33.70
-39.29
-46.37
-54.91
-64.30
-73.26
-80.06
-82.85
-80.24
-71.78
-58.18
-41.14
-22.85
-5.36
9.83
21.96
30.80
36.42
38.94
38.62
35.88
31.50
26.53
22.08
19.01
17.58
17.47
17.86
17.80
16.61
14.07
10.43
6.20
1.82
-2.52
-6.93
-11.68
-17.02
-23.16
-30.26
-38.48
-47.79
-57.76
-67.33
-74.75
-78.06
-75.63
-66.95
-52.78
-35.08
-16.23
1.55
16.73
28.48
36.49
40.74
41.36
38.82
33.99
28.16
22.70
18.71
16.63
16.13
16.33
16.22
15.02
12.51
8.94
4.86
0.85
-2.80
-6.13
-9.58
-13.74
-19.24
-26.49
-35.58
-46.02
-56.73
-66.03
-71.95
-72.65
-67.03
-55.11
-38.12
-18.19
2.25
21.09
36.92
49.13
57.67
62.79
64.86
64.31
61.73
57.85
53.52
49.56
46.56
44.78
44.02
43.73
43.15
41.52
38.36
33.55
27.31
20.16
12.60
5.01
-2.47
-9.91
-17.47
-25.34
-33.74
-42.93
-53.15
-64.41
-76.16
-87.05
-95.12
-98.19
-94.60
-83.85
-66.79
-45.38
-22.08
0.91
22.01
40.30
55.30
66.68
74.17
77.74
77.80
75.37
71.93
68.97
67.52
67.77
69.05
70.18
70.04
68.07
64.41
59.73
54.72
49.74
44.59
38.72
31.61
23.15
13.68
3.96
-5.24
-13.46
-20.62
-27.09
-33.40
-40.21
-48.04
-57.27
-67.90
-79.34
-90.24
-98.62
-102.30
-99.55
-89.66
-73.30
-52.24
-28.82
-5.23
16.90
36.64
53.51
67.18
77.35
83.82
86.73
86.68
84.71
82.07
79.74
78.23
77.49
77.06
76.39
75.12
73.15
70.51
67.22
63.21
58.31
52.46
45.77
38.61
31.43
24.58
18.11
11.81
5.28
-1.78
-9.40
-17.29
-24.99
-32.14
-38.61
-44.62
-50.63
-57.25
-65.02
-74.26
-84.85
-95.97
-106.11
-113.17
-114.98
-109.98
-97.80
-79.45
-57.02
-33.02
-9.68
11.56
29.99
45.35
57.47
66.12
71.13
72.70
71.58
68.98
66.23
64.34
63.68
63.92
64.27
63.90
62.30
59.48
55.83
51.88
47.91
43.87
39.39
34.04
27.56
20.09
12.10
4.23
-2.95
-9.20
-14.57
-19.44
-24.27
-29.50
-35.51
-42.59
-50.89
-60.27
-70.14
-79.28
-85.99
-88.41
-85.13
-75.73
-60.93
-42.43
-22.35
-2.61
15.41
30.95
43.64
53.32
59.90
63.41
64.15
62.79
60.21
57.36
55.02
53.57
53.01
52.96
52.90
52.33
50.89
48.44
45.02
40.76
35.81
30.32
24.43
18.33
12.20
6.15
0.20
-5.79
-11.98
-18.44
-25.06
-31.52
-37.44
-42.59
-47.08
-51.34
-56.11
-62.14
-69.88
-79.16
-89.07
-97.96
-103.84
-104.87
-99.89
-88.80
-72.62
-53.18
-32.52
-12.43
5.91
21.79
34.89
44.94
51.72
55.23
55.85
54.41
52.09
50.01
48.96
49.12
50.08
51.11
51.49
50.78
48.89
46.03
42.51
38.60
34.44
30.04
25.28
20.03
14.19
7.80
1.01
-5.85
-12.37
-18.20
-23.21
-27.52
-31.57
-35.89
-41.02
-47.37
-55.04
-63.71
-72.55
-80.27
-85.20
-85.79
-81.00
-70.78
-56.09
-38.72
-20.61
-3.41
11.91
24.98
35.78
44.29
50.36
53.82
54.74
53.59
51.23
48.66
46.66
45.57
45.24
45.23
45.07
44.48
43.31
41.53
39.05
35.75
31.55
26.57
21.07
15.44
9.93
4.63
-0.62
-6.09
-11.93
-18.17
-24.56
-30.77
-36.50
-41.66
-46.42
-51.14
-56.34
-62.58
-70.24
-79.32
-89.28
-98.89
-106.41
-109.93
-107.96
-99.94
-86.45
-69.04
-49.70
-30.28
-12.05
4.33
18.55
30.42
39.67
46.09
49.75
51.15
51.11
50.56
50.26
50.58
51.51
52.78
54.04
55.05
55.69
55.95
55.82
55.19
53.85
51.54
48.06
43.46
38.06
32.39
26.99
22.19
17.93
13.82
9.29
3.97
-2.23
-9.02
-15.87
-22.26
-27.92
-32.87
-37.50
-42.34
-48.01
-54.97
-63.32
-72.64
-81.81
-89.10
-92.56
-90.58
-82.45
-68.69
-50.94
-31.42
-12.24
5.11
19.94
32.15
41.94
49.40
54.54
57.40
58.26
57.70
56.45
55.23
54.42
54.08
53.99
53.85
53.46
52.76
51.78
50.48
48.68
46.08
42.44
37.67
31.95
25.67
19.31
13.24
7.63
2.36
-2.80
-8.09
-13.61
-19.29
-24.92
-30.34
-35.50
-40.51
-45.64
-51.30
-57.88
-65.54
-74.07
-82.56
-89.56
-93.26
-92.11
-85.34
-73.27
-57.31
-39.38
-21.42
-4.82
9.72
22.03
32.15
40.10
45.83
49.31
50.74
50.60
49.55
48.29
47.32
46.84
46.78
46.91
46.94
46.65
45.81
44.25
41.82
38.50
34.40
29.78
24.97
20.22
15.70
11.41
7.22
2.94
-1.66
-6.75
-12.44
-18.62
-25.10
-31.51
-37.61
-43.35
-48.96
-54.92
-61.70
-69.54
-78.07
-86.26
-92.54
-95.18
-92.85
-85.02
-72.18
-55.72
-37.50
-19.35
-2.65
11.83
23.77
33.15
40.02
44.49
46.77
47.31
46.74
45.77
45.03
44.83
45.21
45.88
46.47
46.69
46.37
45.49
44.05
42.02
39.30
35.80
31.52
26.63
21.43
16.25
11.30
6.58
1.93
-2.93
-8.17
-13.75
-19.46
-24.96
-30.02
-34.57
-38.80
-43.17
-48.22
-54.46
-62.08
-70.70
-79.22
-85.93
-88.93
-86.71
-78.73
-65.67
-49.17
-31.34
-14.04
1.53
14.84
25.81
34.47
40.76
44.62
46.18
45.88
44.48
42.80
41.53
40.97
41.05
41.43
41.70
41.54
40.77
39.36
37.40
34.97
32.15
28.97
25.43
21.56
17.39
12.93
8.17
3.11
-2.21
-7.66
-13.02
-18.08
-22.72
-26.98
-31.14
-35.63
-40.93
-47.38
-54.96
-63.13
-70.73
-76.17
-77.80
-74.41
-65.70
-52.42
-36.16
-18.81
-2.04
13.09
26.06
36.70
44.89
50.49
53.42
53.91
52.58
50.40
48.47
47.58
48.07
49.69
51.83
53.81
55.15
55.74
55.79
55.66
55.58
55.55
55.28
54.26
51.97
48.03
42.35
35.23
27.16
18.73
10.43
2.53
-4.87
-11.77
-18.11
-23.76
-28.54
-32.28
-34.86
-36.01
-35.36
-32.39
-26.63
-17.92
-6.54
6.76
20.93
34.85
47.52
58.12
66.09
71.05
72.79
71.24
66.43
58.51
47.74
34.62
19.85
4.38
-10.73
-24.51
-36.27
-45.72
-52.97
-58.46
-62.81
-66.63
-70.39
-74.27
-78.19
-81.84
-84.88
-87.07
-88.35
-88.87
-88.91
-88.85
-89.12
-90.11
-91.95
-94.26
-96.08
-95.94
-92.28
-84.05
-71.13
-54.52
-35.98
-17.53
-0.83
13.10
23.91
31.72
36.83
39.62
40.52
40.10
39.03
37.99
37.48
37.75
38.72
40.06
41.42
42.44
42.89
42.62
41.49
39.41
36.36
32.37
27.63
22.44
17.11
11.98
7.21
2.75
-1.66
-6.51
-12.22
-18.92
-26.10
-32.62
-36.87
-37.24
-32.76
-23.46
-10.48
4.33
18.89
31.47
41.01
47.10
49.84
49.56
46.72
41.78
35.40
28.30
21.26
14.90
9.62
5.50
2.35
-0.16
-2.39
-4.62
-7.07
-9.90
-13.19
-16.88
-20.85
-24.84
-28.60
-32.00
-35.02
-37.84
-40.76
-44.08
-48.10
-52.97
-58.59
-64.45
-69.54
-72.48
-71.86
-66.70
-56.86
-43.21
-27.44
-11.50
2.84
14.42
22.74
27.80
29.92
29.56
27.29
23.83
20.03
16.63
14.20
12.90
12.55
12.69
12.87
12.72
12.09
10.97
9.41
7.39
4.87
1.78
-1.88
-5.97
-10.23
-14.40
-18.29
-21.90
-25.48
-29.48
-34.43
-40.71
-48.29
-56.47
-63.88
-68.79
-69.53
-65.11
-55.57
-41.97
-26.10
-9.84
5.24
18.16
28.42
35.86
40.44
42.32
41.86
39.78
37.04
34.63
33.29
33.28
34.30
35.73
36.88
37.31
36.93
35.98
34.79
33.59
32.33
30.69
28.29
24.89
20.55
15.61
10.56
5.77
1.45
-2.47
-6.18
-9.94
-14.01
-18.61
-23.79
-29.40
-34.86
-39.24
-41.44
-40.58
-36.45
-29.70
-21.71
-14.15
-8.37
-5.10
-4.34
-5.67
-8.54
-12.61
-17.75
-24.00
-31.42
-40.06
-49.87
-60.69
-72.17
-83.63
-94.04
-102.15
-106.61
-106.33
-100.80
-90.23
-75.57
-58.44
-40.73
-24.30
-10.57
-0.32
6.41
10.18
11.83
12.19
11.84
10.99
9.46
6.84
2.63
-3.52
-11.58
-20.93
-30.35
-38.19
-42.79
-43.01
-38.59
-30.30
-19.61
-8.13
2.90
12.96
22.16
30.90
39.41
47.55
54.86
60.77
64.98
67.53
68.79
69.18
68.97
68.20
66.72
64.36
61.07
56.92
52.04
46.37
39.69
31.69
22.14
11.19
-0.59
-12.29
-22.93
-31.71
-38.34
-43.01
-46.32
-49.17
-52.41
-56.64
-61.87
-67.35
-71.67
-73.06
-69.95
-61.48
-47.81
-29.95
-9.34
12.55
34.51
55.57
74.83
91.32
104.12
112.51
116.28
115.83
112.02
105.94
98.59
90.78
82.99
75.49
68.31
61.41
54.64
47.87
40.93
33.68
25.98
17.67
8.66
-0.93
-10.76
-20.22
-28.63
-35.48
-40.64
-44.53
-47.91
-51.80
-57.07
-64.14
-72.74
-81.80
-89.50
-93.72
-92.55
-84.90
-70.76
-51.27
-28.35
-4.13
19.44
40.88
59.21
73.85
84.52
91.32
94.68
95.37
94.30
92.20
89.46
86.02
81.52
75.59
68.17
59.72
51.08
43.21
36.75
31.71
27.43
22.84
16.95
9.24
-0.04
-10.08
-19.72
-27.96
-34.27
-38.70
-41.74
-44.17
-46.79
-50.02
-53.69
-56.71
-57.23
-53.01
-42.30
-24.53
-0.86
25.99
52.50
75.27
91.96
101.57
104.40
101.49
94.31
84.39
73.32
62.67
53.77
47.51
44.05
42.87
42.94
43.13
42.72
41.56
40.15
39.20
39.34
40.64
42.60
44.31
44.89
43.81
41.14
37.44
33.46
29.74
26.39
23.08
19.29
14.61
9.06
3.23
-1.85
-5.01
-5.30
-2.34
3.57
11.50
20.22
28.47
35.27
40.06
42.61
42.93
41.18
37.61
32.60
26.63
20.29
14.19
8.76
4.24
0.61
-2.35
-4.94
-7.45
-10.05
-12.73
-15.31
-17.49
-18.99
-19.64
-19.54
-18.99
-18.50
-18.50
-19.20
-20.53
-22.30
-24.37
-26.80
-29.78
-33.39
-37.43
-41.30
-44.18
-45.35
-44.51
-41.81
-37.76
-32.93
-27.70
-22.25
-16.63
-10.97
-5.62
-1.11
2.09
3.72
3.91
3.12
1.95
0.88
0.11
-0.46
-1.12
-2.19
-3.83
-6.05
-8.73
-11.72
-14.91
-18.24
-21.66
-25.06
-28.31
-31.23
-33.67
-35.51
-36.75
-37.45
-37.79
-37.94
-37.99
-37.83
-37.22
-35.76
-33.18
-29.39
-24.55
-19.07
-13.42
-8.01
-3.12
1.13
4.69
7.53
9.63
11.00
11.65
11.66
11.11
10.08
8.62
6.82
4.73
2.46
0.10
-2.27
-4.62
-6.94
-9.26
-11.60
-13.94
-16.27
-18.56
-20.84
-23.21
-25.86
-29.01
-32.79
-37.20
-42.01
-46.83
-51.15
-54.40
-56.06
-55.74
-53.28
-48.78
-42.59
-35.24
-27.26
-19.10
-11.04
-3.27
4.05
10.65
16.18
20.32
22.92
24.05
24.06
23.40
22.55
21.85
21.43
21.25
21.15
20.99
20.69
20.28
19.82
19.30
18.63
17.63
16.14
14.08
11.53
8.62
5.54
2.46
-0.53
-3.35
-6.00
-8.58
-11.27
-14.35
-18.03
-22.34
-27.09
-31.86
-36.13
-39.44
-41.54
-42.31
-41.81
-40.14
-37.41
-33.66
-28.93
-23.28
-16.91
-10.20
-3.62
2.31
7.22
10.97
13.64
15.48
16.73
17.55
17.94
17.91
17.46
16.75
15.95
15.25
14.66
14.04
13.15
11.79
9.86
7.47
4.83
2.19
-0.31
-2.68
-5.02
-7.49
-10.22
-13.26
-16.59
-20.13
-23.71
-27.18
-30.41
-33.39
-36.29
-39.31
-42.64
-46.24
-49.73
-52.51
-53.86
-53.21
-50.27
-45.10
-38.01
-29.45
-19.86
-9.65
0.74
10.85
20.16
28.13
34.33
38.52
40.69
41.10
40.14
38.28
35.95
33.48
31.09
28.91
26.98
25.30
23.79
22.33
20.79
18.99
16.83
14.27
11.34
8.21
5.10
2.20
-0.43
-2.88
-5.39
-8.28
-11.83
-16.24
-21.55
-27.61
-34.03
-40.20
-45.23
-48.13
-48.04
-44.55
-37.85
-28.80
-18.64
-8.60
0.41
7.98
14.12
18.98
22.66
25.10
26.21
26.01
24.76
22.96
21.13
19.63
18.52
17.62
16.65
15.40
13.82
11.98
9.96
7.74
5.25
2.43
-0.70
-3.94
-7.06
-9.91
-12.53
-15.22
-18.47
-22.71
-28.22
-34.82
-41.84
-48.16
-52.35
-53.13
-49.72
-42.16
-31.26
-18.41
-5.10
7.45
18.48
27.64
34.81
39.94
42.99
44.07
43.48
41.78
39.63
37.59
36.00
34.88
34.09
33.41
32.72
31.99
31.26
30.56
29.87
29.09
28.11
26.84
25.21
23.23
20.91
18.33
15.60
12.81
10.02
7.26
4.41
1.32
-2.20
-6.26
-10.82
-15.66
-20.47
-25.00
-29.10
-32.86
-36.51
-40.37
-44.71
-49.77
-55.65
-62.24
-69.18
-75.80
-81.09
-83.97
-83.50
-79.19
-71.15
-59.96
-46.48
-31.61
-16.16
-0.83
13.68
26.65
37.39
45.41
50.59
53.21
53.87
53.31
52.19
50.96
49.82
48.80
47.86
46.98
46.18
45.50
44.87
44.13
43.01
41.21
38.56
35.12
31.17
27.16
23.55
20.64
18.57
17.27
16.55
16.09
15.56
14.63
13.08
10.92
8.39
5.93
3.96
2.82
2.59
3.19
4.47
6.36
8.88
12.12
16.18
21.14
27.09
34.11
42.29
51.56
61.76
72.52
83.27
93.33
101.97
108.51
112.33
112.98
110.13
103.72
93.99
81.55
67.32
52.36
37.63
23.78
11.10
-0.45
-10.96
-20.50
-29.04
-36.53
-43.08
-48.88
-54.18
-59.08
-63.45
-67.06
-69.67
-71.21
-71.81
-71.71
-71.16
-70.32
-69.27
-68.10
-66.84
-65.51
-64.05
-62.39
-60.46
-58.26
-55.88
-53.48
-51.19
-49.05
-46.92
-44.62
-41.87
-38.43
-34.08
-28.69
-22.25
-14.90
-6.99
1.00
8.50
14.93
19.88
23.12
24.68
24.78
23.82
22.28
20.63
19.30
18.57
18.52
19.08
20.02
21.03
21.85
22.27
22.21
21.71
20.83
19.73
18.46
17.08
15.56
13.83
11.80
9.44
6.81
4.03
1.24
-1.48
-4.11
-6.74
-9.42
-12.13
-14.70
-16.90
-18.56
-19.66
-20.42
-21.23
-22.46
-24.31
-26.72
-29.36
-31.70
-33.19
-33.38
-31.95
-28.84
-24.19
-18.35
-11.87
-5.43
0.31
4.87
8.03
9.86
10.62
10.68
10.37
9.98
9.64
9.44
9.37
9.33
9.15
8.73
8.02
7.14
6.25
5.53
4.99
4.50
3.86
2.88
1.51
-0.13
-1.87
-3.54
-5.06
-6.45
-7.78
-9.10
-10.43
-11.79
-13.21
-14.68
-16.22
-17.76
-19.18
-20.39
-21.34
-22.16
-23.12
-24.55
-26.68
-29.50
-32.68
-35.55
-37.30
-37.13
-34.58
-29.64
-22.76
-14.78
-6.61
0.91
7.24
12.10
15.45
17.39
18.10
17.82
16.87
15.62
14.43
13.58
13.20
13.20
13.40
13.55
13.45
13.00
12.20
11.10
9.79
8.33
6.73
5.01
3.21
1.38
-0.35
-1.87
-3.11
-4.15
-5.08
-6.09
-7.28
-8.68
-10.23
-11.82
-13.40
-14.96
-16.61
-18.39
-20.33
-22.39
-24.52
-26.74
-29.12
-31.66
-34.15
-36.17
-37.06
-36.24
-33.34
-28.42
-21.87
-14.33
-6.49
1.03
7.74
13.23
17.15
19.37
19.94
19.12
17.38
15.19
12.95
10.94
9.24
7.79
6.42
4.97
3.27
1.24
-1.13
-3.84
-6.96
-10.56
-14.66
-19.10
-23.48
-27.24
-29.85
-30.95
-30.46
-28.54
-25.41
-21.35
-16.65
-11.71
-7.06
-3.36
-1.08
-0.38
-1.01
-2.42
-4.02
-5.46
-6.72
-7.98
-9.45
-11.16
-12.90
-14.24
-14.70
-13.90
-11.62
-7.92
-3.10
2.32
7.82
12.93
17.49
21.58
25.53
29.74
34.56
40.13
46.32
52.68
58.32
62.13
63.06
60.57
54.99
47.63
40.40
35.15
33.08
34.33
38.15
43.33
48.70
53.39
56.86
58.87
59.27
58.20
56.13
53.88
52.21
51.33
50.46
47.79
41.11
28.75
10.48
-12.06
-35.80
-57.10
-73.06
-82.23
-84.82
-82.29
-76.59
-69.50
-62.28
-55.68
-50.02
-45.45
-41.97
-39.45
-37.62
-36.11
-34.52
-32.60
-30.25
-27.59
-24.86
-22.34
-20.19
-18.40
-16.84
-15.30
-13.62
-11.85
-10.26
-9.22
-9.01
-9.64
-10.82
-12.03
-12.76
-12.72
-11.94
-10.68
-9.35
-8.26
-7.55
-7.20
-7.02
-6.85
-6.50
-5.90
-5.05
-4.02
-2.94
-1.90
-0.98
-0.16
0.66
1.56
2.57
3.60
4.46
4.89
4.70
3.90
2.78
1.91
1.97
3.41
6.21
9.79
13.25
15.80
17.15
17.69
18.38
20.42
24.93
32.71
44.25
59.62
78.45
99.75
121.75
142.08
158.03
167.10
167.44
158.15
139.33
112.02
78.13
40.15
0.89
-36.82
-70.55
-98.35
-118.92
-131.61
-136.42
-134.06
-125.93
-113.98
-100.41
-87.23
-75.76
-66.48
-59.08
-52.75
-46.65
-40.21
-33.35
-26.44
-20.17
-15.17
-11.79
-9.77
-8.29
-6.26
-2.70
2.83
10.02
18.00
25.80
32.83
39.21
45.68
53.12
61.93
71.66
80.90
87.64
89.63
84.97
72.39
51.64
23.77
-8.69
-41.91
-71.50
-93.60
-106.18
-109.59
-106.33
-99.88
-93.24
-87.90
-83.72
-79.59
-74.52
-68.31
-61.63
-55.48
-50.49
-46.55
-42.98
-39.05
-34.57
-29.99
-26.17
-23.89
-23.40
-24.25
-25.55
-26.36
-26.09
-24.70
-22.56
-20.16
-17.82
-15.46
-12.65
-8.79
-3.36
3.80
12.44
21.89
31.26
39.70
46.62
51.85
55.62
58.44
60.87
63.28
65.79
68.23
70.29
71.64
72.05
71.41
69.72
67.16
64.05
60.93
58.43
57.05
57.06
58.32
60.45
62.95
65.44
67.78
70.03
72.27
74.53
76.63
78.29
79.27
79.39
78.62
76.94
74.28
70.47
65.31
58.73
50.91
42.36
33.75
25.83
19.11
13.76
9.65
6.45
3.87
1.73
0.05
-1.09
-1.62
-1.58
-1.09
-0.34
0.42
0.91
0.87
0.12
-1.42
-3.65
-6.31
-9.09
-11.68
-13.87
-15.59
-16.86
-17.85
-18.81
-19.95
-21.32
-22.74
-23.71
-23.71
-22.36
-19.70
-16.18
-12.50
-9.22
-6.56
-4.36
-2.27
-0.01
2.43
4.89
7.12
8.87
9.86
9.73
7.98
4.12
-2.08
-10.33
-19.82
-29.48
-38.37
-46.04
-52.61
-58.63
-64.71
-71.17
-78.01
-84.90
-91.44
-97.26
-102.09
-105.78
-108.18
-109.18
-108.72
-106.76
-103.29
-98.36
-92.01
-84.32
-75.48
-65.81
-55.80
-46.04
-37.24
-30.00
-24.81
-21.96
-21.52
-23.42
-27.42
-33.27
-40.72
-49.59
-59.74
-70.99
-82.93
-94.78
-105.45
-113.65
-118.25
-118.49
-114.06
-105.05
-91.80
-74.70
-54.33
-31.48
-7.31
16.65
38.69
57.28
71.35
80.58
85.43
86.92
86.39
84.99
83.45
81.86
79.85
76.88
72.59
66.97
60.35
53.21
45.97
38.89
32.01
25.29
18.55
11.51
3.89
-4.50
-13.69
-23.36
-32.95
-41.71
-48.97
-54.30
-57.65
-59.35
-60.07
-60.63
-61.73
-63.72
-66.37
-68.75
-69.50
-67.21
-60.98
-50.82
-37.67
-23.12
-8.81
4.13
15.27
24.80
33.11
40.41
46.57
51.28
54.33
55.87
56.36
56.44
56.61
57.09
57.84
58.73
59.70
60.74
61.73
62.26
61.53
58.61
52.88
44.42
34.26
24.08
15.73
10.54
8.94
10.45
14.00
18.35
22.43
25.34
26.27
24.49
19.51
11.43
1.22
-9.34
-18.06
-23.05
-23.31
-19.00
-11.23
-1.60
8.44
17.98
26.61
34.26
40.90
46.37
50.43
52.95
54.07
54.27
54.24
54.67
55.99
58.27
61.22
64.36
67.19
69.34
70.66
71.19
71.11
70.59
69.70
68.37
66.40
63.60
59.89
55.40
50.44
45.35
40.42
35.78
31.45
27.38
23.53
19.90
16.48
13.27
10.30
7.66
5.54
4.22
3.90
4.76
6.80
9.91
13.89
18.49
23.43
28.38
33.02
37.02
40.07
41.98
42.68
42.31
41.05
39.07
36.34
32.62
27.54
20.80
12.39
2.68
-7.55
-17.24
-25.31
-30.96
-33.91
-34.61
-34.11
-33.85
-35.11
-38.52
-43.80
-49.83
-55.13
-58.44
-59.21
-57.67
-54.64
-51.10
-47.78
-45.03
-42.78
-40.75
-38.58
-35.95
-32.67
-28.74
-24.33
-19.71
-15.23
-11.22
-8.00
-5.85
-4.99
-5.53
-7.35
-10.05
-12.98
-15.42
-16.79
-16.93
-16.10
-14.84
-13.74
-13.07
-12.77
-12.48
-11.85
-10.82
-9.79
-9.40
-10.32
-12.79
-16.47
-20.45
-23.56
-24.79
-23.53
-19.75
-13.90
-6.73
0.87
8.06
14.18
18.86
22.11
24.38
26.42
28.98
32.46
36.64
40.73
43.77
45.03
44.35
42.10
38.84
34.89
30.14
24.20
16.81
8.20
-0.80
-9.03
-15.43
-19.48
-21.35
-21.79
-21.87
-22.68
-25.06
-29.42
-35.67
-43.19
-51.04
-58.21
-63.95
-68.00
-70.55
-72.05
-72.92
-73.45
-73.83
-74.46
-76.03
-79.54
-85.99
-96.03
-109.61
-125.98
-143.61
-160.39
-173.69
-180.77
-179.38
-168.45
-148.73
-122.68
-93.85
-65.78
-41.07
-20.93
-5.46
5.69
12.88
16.17
15.71
12.03
6.18
-0.41
-6.40
-10.89
-13.71
-15.28
-16.41
-17.92
-20.22
-23.16
-26.17
-28.56
-30.00
-30.86
-32.18
-35.23
-40.87
-49.03
-58.59
-67.75
-74.74
-78.56
-79.38
-78.50
-77.94
-79.76
-85.41
-95.12
-107.68
-120.59
-130.64
-134.84
-131.31
-119.82
-101.82
-79.83
-56.57
-34.24
-14.15
3.17
17.67
29.40
38.36
44.65
48.64
51.10
53.08
55.67
59.62
65.10
71.72
78.75
85.55
91.84
97.75
103.59
109.52
115.28
