1571137912.00
64.000000
-0.00
-0.00
-0.00
-0.00
-0.00
-0.00
-0.00
-0.00
-0.00
-0.00
0.00
0.01
0.01
-0.00
-0.03
-0.05
-0.05
0.00
0.13
0.36
0.66
1.01
1.37
1.72
2.06
2.40
2.79
3.24
3.80
4.42
5.06
5.66
6.20
6.68
7.15
7.68
8.31
9.14
10.09
11.04
11.88
12.56
13.14
13.76
14.65
15.96
17.91
20.32
22.90
25.38
27.58
29.57
31.68
34.32
37.81
42.54
48.15
54.10
59.83
64.97
69.58
74.14
79.34
85.71
93.76
103.00
112.62
121.73
129.77
136.75
143.30
150.75
157.77
166.64
177.95
191.79
206.97
220.57
228.25
225.36
208.53
176.87
132.76
80.05
23.07
-34.94
-92.44
-149.16
-205.23
-260.37
-313.74
-363.87
-409.83
-450.91
-486.50
-515.74
-537.23
-549.22
-549.96
-538.37
-514.21
-478.67
-433.88
-382.45
-327.02
-269.84
-212.63
-156.66
-102.95
-52.37
-5.90
35.58
71.43
101.35
125.50
144.38
158.69
169.15
176.37
180.75
182.57
182.07
179.51
175.23
169.65
163.18
156.15
148.81
141.30
133.69
126.02
118.33
110.69
103.16
95.80
88.68
81.83
75.25
68.95
62.95
57.25
51.86
46.78
42.03
37.59
33.45
29.61
26.07
22.81
19.83
17.11
14.67
12.48
10.54
8.83
7.35
6.07
4.97
4.05
3.27
2.62
2.09
1.65
1.30
1.01
0.79
0.61
0.47
0.37
0.29
0.23
0.19
0.17
0.15
0.15
0.16
0.18
0.20
0.23
0.27
0.31
0.35
0.40
0.44
0.49
0.54
0.58
0.64
0.69
0.75
0.82
0.89
0.96
1.04
1.14
1.24
1.36
1.49
1.63
1.79
1.98
2.18
2.40
2.65
2.92
3.23
3.56
3.92
4.32
4.76
5.23
5.74
6.28
6.86
7.49
8.16
8.90
9.69
10.52
11.37
12.22
13.05
13.88
14.76
15.72
16.80
18.01
19.30
20.61
21.82
22.82
23.53
23.84
23.70
23.03
21.76
19.80
17.07
13.54
9.23
4.35
-0.82
-5.90
-10.59
-14.64
-18.01
-20.80
-23.17
-25.25
-27.03
-28.34
-28.96
-28.71
-27.63
-26.07
-24.57
-23.68
-23.74
-24.68
-26.04
-27.13
-27.38
-26.61
-25.19
-23.89
-23.57
-24.73
-27.28
-30.46
-33.29
-34.93
-35.09
-34.14
-32.99
-32.62
-33.94
-37.56
-43.65
-51.60
-59.65
-64.89
-63.93
-54.19
-35.34
-9.96
17.07
40.38
56.08
63.06
62.90
58.54
52.64
46.62
40.64
34.45
28.20
22.76
19.17
18.02
18.93
20.69
21.77
21.04
18.09
13.51
8.38
3.74
0.12
-2.62
-5.14
-8.34
-12.89
-19.14
-26.91
-35.60
-44.18
-51.26
-55.26
-54.78
-49.08
-38.42
-24.18
-8.38
6.84
19.94
30.29
38.00
43.45
46.87
48.13
47.05
43.77
39.04
34.16
30.47
28.81
29.15
30.57
31.71
31.36
28.90
24.45
18.73
12.60
6.75
1.46
-3.38
-8.14
-13.26
-19.10
-25.91
-33.77
-42.43
-51.21
-58.88
-63.75
-64.18
-59.13
-48.63
-33.98
-17.28
-0.79
13.71
25.27
33.74
39.35
42.41
43.21
42.05
39.48
36.23
33.16
30.92
29.82
29.74
30.26
30.79
30.78
29.74
27.37
23.58
18.58
12.75
6.59
0.51
-5.27
-10.83
-16.40
-22.35
-28.98
-36.49
-44.90
-53.87
-62.62
-69.90
-74.18
-74.13
-69.03
-59.19
-45.91
-31.16
-16.97
-4.97
3.87
9.25
11.35
10.65
7.86
3.79
-0.73
-4.97
-8.48
-11.09
-12.87
-13.92
-14.30
-13.93
-12.68
-10.46
-7.33
-3.47
0.86
5.41
10.00
14.52
18.94
23.18
27.07
30.32
32.48
33.01
31.43
27.36
20.75
12.06
2.41
-6.52
-12.71
-14.42
-10.71
-1.89
10.55
24.36
37.24
47.54
54.52
58.34
59.63
59.10
57.28
54.55
51.24
47.74
44.53
41.98
40.28
39.31
38.69
37.96
36.76
34.95
32.57
29.71
26.39
22.51
17.96
12.71
6.98
1.15
-4.31
-9.11
-13.27
-17.18
-21.42
-26.55
-32.95
-40.49
-48.44
-55.50
-60.00
-60.33
-55.51
-45.59
-31.79
-16.16
-0.97
11.91
21.51
27.66
30.86
31.77
31.05
29.21
26.76
24.22
22.12
20.86
20.52
20.88
21.44
21.70
21.32
20.21
18.47
16.19
13.39
10.02
5.96
1.23
-3.95
-9.19
-14.06
-18.25
-21.71
-24.65
-27.56
-31.04
-35.55
-41.23
-47.66
-53.78
-58.08
-58.98
-55.42
-47.18
-35.14
-20.98
-6.72
5.87
15.67
22.28
25.92
27.13
26.55
24.83
22.59
20.42
18.79
17.98
17.99
18.60
19.48
20.32
20.91
21.10
20.73
19.64
17.66
14.72
10.92
6.48
1.72
-3.07
-7.68
-12.04
-16.24
-20.48
-25.09
-30.38
-36.45
-42.95
-48.96
-53.11
-53.93
-50.47
-42.65
-31.40
-18.38
-5.40
6.00
14.97
21.26
25.06
26.71
26.58
25.05
22.62
19.92
17.67
16.41
16.35
17.27
18.63
19.78
20.18
19.55
17.90
15.36
12.17
8.55
4.73
0.93
-2.64
-5.92
-9.04
-12.25
-15.97
-20.59
-26.33
-33.09
-40.29
-46.80
-51.10
-51.71
-47.66
-38.96
-26.75
-12.94
0.35
11.51
19.77
25.19
28.28
29.61
29.55
28.32
26.20
23.68
21.46
20.20
20.32
21.83
24.21
26.69
28.37
28.56
26.94
23.60
18.98
13.71
8.41
3.49
-0.92
-5.02
-9.21
-13.97
-19.61
-26.16
-33.18
-39.78
-44.79
-47.02
-45.66
-40.57
-32.34
-22.16
-11.47
-1.57
6.70
12.91
17.05
19.25
19.67
18.53
16.12
12.93
9.62
6.87
5.19
4.69
5.02
5.51
5.42
4.22
1.81
-1.46
-5.04
-8.41
-11.34
-13.97
-16.74
-20.13
-24.50
-29.93
-36.17
-42.60
-48.29
-52.09
-52.90
-50.05
-43.56
-34.29
-23.67
-13.25
-4.20
2.92
8.04
11.24
12.43
11.44
8.26
3.36
-2.18
-7.01
-10.05
-11.01
-10.57
-9.94
-10.27
-12.04
-14.98
-18.36
-21.47
-24.01
-25.99
-27.53
-28.53
-28.61
-27.38
-24.92
-21.90
-19.49
-18.92
-20.91
-25.40
-31.79
-39.21
-46.77
-53.44
-57.45
-55.86
-44.91
-21.16
16.59
65.84
120.29
171.38
211.07
234.57
241.56
235.68
222.30
206.27
190.30
174.86
159.18
142.36
124.12
104.63
84.18
62.74
40.25
17.25
-4.55
-22.37
-33.43
-36.46
-32.81
-26.36
-22.05
-23.67
-32.12
-45.09
-58.22
-67.21
-69.54
-65.40
-57.13
-48.28
-42.30
-41.75
-47.60
-59.01
-73.44
-87.27
-96.75
-99.13
-93.30
-79.84
-60.43
-37.12
-11.81
13.88
38.29
59.63
76.00
85.83
88.35
83.89
73.88
60.54
46.33
33.57
24.06
18.96
18.76
23.44
32.44
44.68
58.73
72.94
85.67
95.43
101.00
101.45
96.16
84.66
66.31
40.38
6.40
-34.91
-80.92
-126.90
-167.04
-196.22
-211.79
-214.53
-208.06
-197.27
-186.31
-177.55
-171.40
-167.21
-163.97
-160.77
-156.76
-150.97
-142.70
-131.97
-120.00
-109.11
-101.80
-99.78
-103.00
-109.39
-115.40
-117.19
-111.93
-98.70
-78.66
-54.44
-29.26
-5.93
13.73
28.94
39.66
46.33
49.58
50.24
49.28
47.79
46.83
47.12
48.90
51.85
55.33
58.65
61.31
63.19
64.45
65.43
66.38
67.34
68.06
68.02
66.44
62.58
55.87
46.16
33.90
20.18
6.57
-5.12
-13.26
-16.73
-15.20
-9.13
0.39
11.85
23.72
34.65
43.64
50.06
53.76
54.91
54.00
51.68
48.64
45.47
42.51
39.92
37.59
35.31
32.76
29.70
25.98
21.59
16.62
11.19
5.51
-0.13
-5.27
-9.28
-11.70
-12.44
-12.18
-12.26
-14.35
-19.99
-30.06
-44.85
-64.20
-87.77
-115.02
-144.77
-174.83
-202.06
-223.11
-235.61
-239.03
-234.71
-224.91
-211.37
-194.34
-172.63
-144.52
-109.02
-66.80
-20.12
27.86
74.13
116.45
153.46
184.36
208.59
225.64
235.27
237.77
234.19
226.36
216.54
206.89
198.92
193.11
188.81
184.50
178.51
169.69
158.04
144.74
131.84
121.45
115.05
112.97
114.41
117.83
121.55
124.22
125.07
123.96
121.28
117.85
114.75
113.05
113.45
115.98
119.92
124.07
127.34
129.28
130.36
131.80
134.98
140.74
148.88
158.07
166.13
170.69
169.76
162.11
147.49
126.49
100.19
69.79
36.14
-0.60
-40.95
-85.57
-134.26
-184.85
-232.76
-271.62
-295.17
-299.53
-284.94
-256.09
-220.70
-187.00
-161.27
-146.44
-142.20
-146.23
-155.63
-167.86
-180.91
-192.88
-201.75
-205.55
-202.87
-193.43
-178.38
-159.99
-140.94
-123.51
-108.93
-97.18
-87.15
-77.24
-66.00
-52.70
-37.65
-22.09
-7.63
4.55
14.30
22.69
31.57
42.73
57.11
74.49
93.77
113.49
132.47
149.97
165.54
178.91
189.80
198.17
204.33
209.07
213.38
218.01
223.16
228.31
232.51
234.81
234.60
231.63
225.82
216.89
204.19
186.83
164.17
136.24
104.01
69.17
33.56
-1.53
-35.75
-69.79
-105.10
-143.18
-184.88
-229.76
-275.74
-319.41
-356.80
-384.63
-401.52
-408.48
-408.58
-405.72
-403.18
-402.53
-403.28
-403.30
-399.65
-389.52
-371.07
-344.04
-310.06
-272.45
-235.62
-203.95
-180.64
-167.06
-162.60
-165.07
-171.44
-178.33
-182.35
-180.43
-170.19
-150.51
-121.89
-86.39
-47.04
-6.80
32.33
69.89
106.78
144.49
184.00
224.97
265.39
302.14
332.05
352.91
364.27
367.23
363.87
356.23
345.71
332.96
318.21
301.81
284.37
266.67
249.22
232.05
214.80
197.06
178.79
160.36
142.28
124.94
108.25
91.72
74.70
56.64
37.18
16.18
-6.48
-30.75
-56.29
-82.17
-106.77
-128.02
-143.96
-153.32
-156.00
-153.10
-146.50
-138.20
-129.66
-121.47
-113.30
-104.24
-93.26
-79.56
-62.94
-43.84
-23.39
-3.34
14.28
27.58
35.44
37.84
35.80
30.87
24.24
16.14
5.81
-7.85
-25.40
-46.05
-67.76
-87.97
-104.62
-117.05
-126.07
-133.39
-140.64
-148.67
-157.23
-165.19
-170.90
-172.56
-168.36
-156.62
-136.10
-106.29
-67.71
-21.84
29.45
84.65
143.18
205.16
270.42
337.15
401.18
456.51
497.08
518.88
521.53
508.06
483.48
452.62
418.51
382.24
343.80
303.48
262.70
223.67
188.42
157.66
130.29
103.86
75.68
44.00
8.71
-28.65
-65.77
-100.66
-132.56
-162.24
-191.64
-222.95
-257.89
-297.43
-341.83
-390.69
-442.56
-494.31
-540.88
-575.96
-593.61
-590.34
-566.49
-525.94
-474.54
-417.81
-359.24
-300.21
-241.10
-182.84
-127.63
-78.32
-36.84
-2.83
26.62
55.75
88.16
125.06
164.64
202.96
235.73
260.31
276.67
286.99
294.35
300.96
307.04
310.92
310.08
302.61
288.25
268.49
245.70
222.05
198.76
176.18
154.48
134.42
117.59
105.80
100.20
100.54
105.15
111.64
117.72
121.95
123.63
122.46
117.96
109.39
95.99
77.57
54.79
29.19
2.66
-23.12
-47.14
-69.16
-89.38
-107.98
-124.79
-139.29
-150.88
-159.30
-164.93
-168.82
-172.40
-176.97
-183.22
-191.02
-199.60
-208.12
-216.25
-224.49
-234.05
-246.32
-262.30
-281.97
-304.18
-326.76
-346.87
-361.35
-367.25
-362.31
-345.46
-317.26
-279.85
-236.44
-190.46
-144.55
-99.82
-55.71
-10.42
37.99
90.33
145.21
198.55
244.16
275.18
286.18
275.11
244.48
200.88
153.19
109.70
75.80
52.73
38.25
28.41
19.71
10.45
0.91
-7.45
-12.99
-14.54
-11.29
-2.36
13.22
35.85
64.50
96.31
127.14
153.08
171.99
184.26
192.16
198.24
203.61
207.18
206.25
198.19
182.10
159.61
134.38
110.61
91.27
77.18
67.03
58.29
48.46
36.07
21.06
4.46
-12.22
-27.59
-40.70
-51.01
-58.29
-62.56
-64.08
-63.58
-62.33
-61.93
-64.01
-69.53
-78.22
-88.44
-97.41
-102.10
-100.38
-91.92
-78.47
-63.24
-49.63
-39.78
-33.65
-29.09
-22.79
-11.81
5.15
27.35
52.39
77.40
100.12
119.68
136.56
151.92
166.94
182.22
197.40
211.96
225.66
238.67
251.03
262.33
271.68
278.17
281.28
280.78
277.16
271.31
263.89
254.80
243.30
228.62
210.63
189.98
166.83
141.62
115.21
88.76
63.26
39.42
17.66
-1.82
-19.57
-39.43
-64.50
-95.23
-129.28
-163.32
-194.53
-221.01
-241.58
-256.49
-272.36
-294.51
-324.03
-358.28
-394.26
-430.24
-464.38
-492.57
-509.97
-520.28
-526.13
-526.34
-517.35
-498.16
-472.63
-447.26
-427.09
-416.38
-427.66
-466.65
-527.34
-594.43
-652.87
-694.57
-718.68
-727.27
-653.81
-470.51
-207.28
66.35
294.69
459.38
566.67
623.94
651.39
659.37
642.01
594.56
520.26
428.60
332.77
248.23
185.34
149.42
136.81
131.85
121.60
102.64
80.13
60.84
48.00
41.01
38.76
38.79
34.92
22.99
3.86
-17.46
-36.24
-50.91
-62.93
-73.32
-85.37
-96.55
-102.90
-99.40
-82.23
-52.15
-15.08
20.33
47.01
61.43
64.00
57.28
44.88
30.10
14.69
-0.86
-16.33
-30.88
-43.50
-52.87
-58.73
-63.89
-70.00
-77.91
-87.36
-97.26
-106.08
-112.53
-115.74
-116.11
-114.70
-112.35
-109.67
-106.73
-103.11
-98.19
-91.58
-83.26
-73.93
-64.64
-56.04
-48.49
-41.91
-35.82
-29.63
-22.94
-15.72
-8.34
-1.43
4.68
9.88
14.45
18.88
23.69
29.20
35.39
41.95
48.46
54.78
61.04
67.73
75.51
84.95
96.30
109.34
123.59
138.42
153.39
168.33
183.38
198.89
215.50
234.04
255.37
279.83
306.61
333.20
355.69
369.76
372.16
361.98
341.05
313.12
282.44
252.35
224.53
199.25
176.02
154.22
133.33
112.74
91.65
69.31
45.55
21.30
-1.36
-19.82
-31.83
-36.39
-34.16
-27.13
-17.84
-8.56
-0.81
4.76
8.05
9.12
8.02
4.77
-0.48
-7.27
-14.84
-22.14
-28.14
-32.07
-33.65
-33.25
-31.79
-30.51
-30.50
-32.29
-35.66
-39.68
-43.10
-44.92
-44.92
-43.79
-42.92
-43.95
-48.14
-56.03
-67.30
-80.91
-95.32
-108.77
-119.49
-125.96
-127.18
-122.82
-113.49
-100.61
-86.11
-72.02
-60.06
-51.36
-46.50
-45.74
-49.27
-57.15
-69.00
-83.53
-98.34
-110.31
-116.52
-115.39
-107.39
-94.95
-81.51
-70.26
-63.15
-60.57
-61.85
-65.90
-71.80
-78.91
-86.70
-94.54
-101.72
-107.65
-112.15
-115.32
-117.52
-118.99
-119.70
-119.32
-117.45
-113.87
-108.68
-102.28
-95.04
-87.10
-78.08
-67.26
-53.84
-37.44
-18.30
2.80
24.80
46.87
68.77
90.89
114.18
139.95
169.71
204.63
244.80
288.19
330.30
364.76
385.14
387.26
370.89
339.88
300.58
259.27
220.03
184.27
151.64
121.79
95.46
74.40
60.24
53.41
52.87
56.81
63.79
73.32
85.31
99.31
113.34
123.84
126.58
118.03
96.20
60.65
12.28
-46.68
-112.11
-177.38
-233.79
-272.48
-287.27
-276.84
-245.30
-200.47
-150.92
-103.40
-61.84
-27.78
-1.48
17.30
29.43
36.61
41.25
45.55
50.47
55.23
57.86
56.60
50.92
42.02
32.28
24.12
19.02
17.05
17.07
17.17
15.35
10.21
1.27
-10.69
-23.80
-35.56
-43.70
-46.77
-44.53
-37.85
-28.14
-16.85
-5.10
6.30
16.77
25.84
33.35
39.56
45.22
51.27
58.30
66.26
74.36
81.50
86.75
89.70
90.54
89.69
87.34
83.27
76.90
67.77
55.94
42.22
27.95
14.53
2.98
-6.40
-13.94
-20.30
-25.93
-30.67
-33.74
-34.00
-30.60
-23.55
-13.89
-3.45
5.84
12.68
16.78
18.65
19.09
18.54
16.97
14.10
9.92
5.02
0.56
-2.32
-3.15
-2.49
-1.81
-2.88
-6.97
-14.38
-24.39
-35.75
-47.29
-58.42
-69.09
-79.45
-89.41
-98.38
-105.50
-110.03
-111.72
-110.93
-108.38
-104.91
-101.16
-97.65
-94.83
-93.18
-93.03
-94.33
-96.47
-98.18
-97.81
-93.66
-84.51
-69.83
-50.00
-26.09
0.50
28.39
56.62
84.50
111.36
136.20
157.59
174.16
185.26
191.55
194.75
196.69
198.11
198.06
194.48
185.56
171.13
152.82
132.96
113.10
93.20
72.32
50.06
27.77
8.23
-5.95
-14.22
-18.73
-23.20
-30.57
-41.09
-52.17
-60.01
-62.03
-58.38
-51.70
-45.40
-41.55
-39.86
-38.06
-33.55
-24.96
-12.99
0.09
11.73
20.52
26.85
32.47
39.27
48.19
58.54
68.34
75.29
77.94
76.28
71.70
66.27
61.75
58.81
56.92
54.87
51.61
46.99
41.91
37.85
36.04
36.70
38.99
41.40
42.41
41.08
37.16
30.88
22.69
13.07
2.70
-7.50
-16.51
-23.43
-27.89
-30.10
-30.76
-30.65
-30.29
-29.73
-28.56
-26.23
-22.39
-17.10
-10.77
-4.08
2.31
7.85
12.10
14.73
15.53
14.51
12.06
8.93
6.03
4.04
2.96
2.05
0.09
-4.02
-10.71
-19.51
-29.21
-38.37
-45.84
-51.19
-54.79
-57.54
-60.60
-64.85
-70.66
-77.76
-85.34
-92.31
-97.75
-101.16
-102.73
-103.18
-103.54
-104.68
-106.95
-110.03
-112.92
-114.34
-113.07
-108.39
-100.23
-89.26
-76.57
-63.32
-50.32
-37.76
-25.18
-11.64
3.78
21.65
41.87
63.63
85.60
106.22
124.03
137.87
147.08
151.47
151.37
147.44
140.40
130.79
118.78
104.16
86.68
66.52
44.49
22.05
0.96
-17.34
-32.10
-43.28
-51.25
-56.41
-58.95
-59.00
-56.86
-53.27
-49.40
-46.44
-45.20
-45.85
-47.85
-50.31
-52.38
-53.63
-54.13
-54.30
-54.49
-54.77
-54.89
-54.53
-53.65
-52.62
-52.04
-52.20
-52.66
-52.28
-49.58
-43.46
-33.74
-21.22
-7.33
6.34
18.51
28.38
35.55
39.90
41.65
41.37
40.00
38.62
38.12
38.80
40.30
41.71
41.87
39.80
34.99
27.46
17.65
6.17
-6.38
-19.44
-32.28
-43.86
-52.77
-57.52
-57.16
-51.75
-42.62
-32.07
-22.57
-16.01
-13.15
-13.54
-16.01
-19.22
-22.05
-23.82
-24.29
-23.68
-22.55
-21.64
-21.44
-21.82
-21.87
-20.25
-15.80
-8.17
1.91
12.98
23.48
32.10
37.94
40.38
39.11
34.20
26.32
16.70
6.76
-2.34
-10.18
-17.06
-23.60
-30.24
-36.77
-42.25
-45.29
-44.64
-39.79
-31.56
-22.10
-14.51
-11.79
-15.78
-26.45
-41.88
-59.06
-75.06
-87.74
-96.01
-99.61
-98.80
-94.31
-87.44
-80.01
-74.01
-71.03
-71.65
-75.30
-80.51
-85.35
-87.80
-86.00
-78.50
-64.54
-44.47
-19.86
6.67
32.27
54.64
72.78
86.95
98.22
107.65
115.74
122.31
126.68
128.13
126.28
121.21
113.50
103.93
93.25
81.90
69.91
57.12
43.44
29.05
14.42
0.17
-13.11
-24.96
-35.03
-42.98
-48.46
-51.09
-50.61
-46.89
-39.93
-29.96
-17.51
-3.54
10.65
23.62
34.27
42.26
47.94
52.22
55.94
59.59
63.13
66.15
68.02
68.10
65.97
61.67
55.81
49.56
44.30
41.13
40.30
41.08
41.90
41.00
37.03
29.56
19.08
6.74
-6.13
-18.47
-29.69
-39.77
-49.14
-58.56
-68.86
-80.61
-93.91
-108.13
-122.05
-134.02
-142.34
-145.81
-143.99
-137.26
-126.66
-113.56
-99.31
-85.04
-71.66
-59.73
-49.51
-40.93
-33.63
-27.20
-21.29
-15.81
-10.93
-6.91
-4.00
-2.22
-1.43
-1.31
-1.51
-1.69
-1.48
-0.52
1.46
4.57
8.60
13.14
17.76
22.15
26.15
29.57
31.91
32.40
30.09
24.41
15.52
4.59
-6.62
-16.31
-23.43
-28.08
-31.28
-34.36
-38.18
-42.60
-46.48
-48.22
-46.33
-40.05
-29.53
-15.57
0.60
17.69
34.44
49.64
62.09
70.84
75.37
75.80
72.94
68.03
62.46
57.41
53.61
51.31
50.37
50.51
51.44
53.07
55.54
59.07
63.76
69.42
75.32
80.34
83.06
82.23
77.10
67.73
54.95
40.16
24.90
10.40
-2.64
-14.05
-24.11
-33.33
-42.31
-51.57
-61.50
-72.05
-82.64
-92.06
-98.70
-101.03
-98.16
-90.22
-78.37
-64.46
-50.42
-37.75
-27.28
-19.17
-13.16
-8.82
-5.72
-3.47
-1.70
-0.08
1.67
3.77
6.25
8.98
11.65
13.86
15.26
15.61
14.90
13.32
11.15
8.73
6.26
3.91
1.73
-0.29
-2.17
-4.02
-6.01
-8.40
-11.40
-15.10
-19.40
-24.00
-28.54
-32.68
-36.38
-39.81
-43.36
-47.28
-51.43
-55.06
-56.98
-55.92
-51.04
-42.32
-30.63
-17.34
-3.89
8.64
19.63
28.77
35.76
40.34
42.39
42.24
40.74
39.00
37.83
37.29
36.55
34.41
30.01
23.57
16.39
10.35
7.07
7.29
10.84
17.04
25.15
34.60
44.82
54.99
64.00
70.82
74.98
76.95
77.94
79.25
81.58
84.54
86.73
86.32
81.74
72.32
58.49
41.77
24.31
8.47
-3.81
-11.23
-13.42
-10.80
-4.51
3.58
11.09
15.24
13.30
3.32
-15.17
-40.65
-69.79
-98.29
-122.03
-138.23
-145.97
-146.04
-140.36
-131.12
-120.28
-109.26
-98.95
-89.79
-81.81
-74.65
-67.65
-60.00
-51.02
-40.43
-28.46
-15.88
-3.76
6.73
14.57
19.08
20.06
17.80
13.12
7.25
1.68
-1.98
-2.38
1.36
9.35
20.82
34.34
48.11
60.42
70.04
76.39
79.47
79.73
77.87
74.71
71.09
67.74
65.21
63.66
62.88
62.37
61.59
60.18
58.18
55.91
53.80
52.05
50.45
48.41
45.14
40.04
32.92
24.10
14.28
4.29
-5.09
-13.24
-19.82
-24.73
-28.12
-30.28
-31.51
-31.71
-30.31
-26.31
-18.76
-7.48
6.46
20.91
33.43
42.37
47.48
49.79
50.70
50.87
49.73
45.85
38.07
26.53
13.04
0.47
-8.40
-12.04
-10.60
-5.69
0.43
5.73
9.07
10.40
10.56
10.76
12.02
14.69
18.14
20.98
21.29
17.12
6.98
-9.56
-31.47
-56.06
-79.29
-96.73
-104.97
-102.89
-92.17
-76.75
-61.34
-49.80
-43.93
-43.33
-46.04
-49.50
-51.43
-50.30
-45.39
-36.85
-25.59
-13.23
-1.84
6.56
10.57
9.83
5.18
-1.61
-8.37
-13.14
-14.66
-12.57
-7.39
-0.25
7.50
14.52
19.84
22.94
23.83
23.03
21.32
19.59
18.42
17.96
17.74
16.95
14.72
10.65
5.02
-1.06
-5.93
-7.84
-5.47
1.67
13.11
27.51
43.05
57.76
69.88
78.03
81.29
79.25
72.02
60.37
45.67
29.77
14.66
1.95
-7.42
-13.43
-16.75
-18.43
-19.47
-20.65
-22.42
-25.03
-28.57
-33.09
-38.42
-44.09
-49.32
-53.12
-54.67
-53.68
-50.65
-46.90
-44.26
-44.60
-49.23
-58.56
-71.93
-87.74
-103.93
-118.32
-129.08
-134.91
-135.22
-130.01
-119.92
-106.12
-90.24
-74.21
-59.95
-48.90
-41.50
-36.97
-33.46
-28.53
-19.86
-5.88
13.81
38.38
65.85
93.46
118.00
136.40
146.30
146.63
137.76
121.33
99.63
75.00
49.40
24.37
1.26
-18.68
-34.51
-45.82
-52.95
-56.80
-58.27
-57.70
-54.67
-48.35
-38.14
-24.42
-8.60
7.25
21.23
32.19
40.01
45.25
48.70
50.98
52.34
52.87
52.68
52.00
51.14
50.29
49.44
48.37
46.77
44.48
41.52
38.08
34.36
30.48
26.47
22.22
17.64
12.66
7.19
1.11
-5.72
-13.44
-22.04
-31.27
-40.59
-49.09
-55.69
-59.26
-58.93
-54.30
-45.74
-34.29
-21.46
-8.75
2.73
12.50
20.61
27.29
32.68
36.66
38.99
39.62
38.90
37.57
36.53
36.48
37.63
39.62
41.76
43.24
43.39
41.84
38.56
33.79
27.98
21.66
15.30
9.19
3.39
-2.23
-7.96
-14.08
-20.86
-28.36
-36.44
-44.61
-52.04
-57.56
-59.97
-58.34
-52.35
-42.51
-29.99
-16.34
-3.06
8.79
18.68
26.61
32.90
37.92
42.00
45.30
47.89
49.77
51.00
51.66
51.83
51.50
50.63
49.12
46.92
44.09
40.74
36.95
32.71
27.87
22.25
15.85
8.89
1.86
-4.68
-10.45
-15.54
-20.50
-26.12
-32.97
-41.14
-49.93
-58.01
-63.73
-65.65
-63.02
-55.95
-45.41
-32.88
-19.96
-7.85
2.71
11.53
18.72
24.45
28.87
32.04
34.06
35.18
35.76
36.18
36.67
37.22
37.53
37.23
36.02
33.84
30.94
27.74
24.66
21.89
19.33
16.65
13.47
9.60
5.17
0.57
-3.77
-7.65
-11.30
-15.26
-20.22
-26.67
-34.70
-43.88
-53.29
-61.72
-67.78
-70.26
-68.38
-62.09
-52.12
-39.81
-26.69
-14.07
-2.71
7.22
15.84
23.30
29.56
34.46
37.86
39.89
40.97
41.62
42.30
43.15
44.03
44.62
44.65
44.02
42.81
41.18
39.28
37.13
34.67
31.80
28.46
24.62
20.30
15.55
10.45
5.15
-0.16
-5.34
-10.38
-15.44
-20.83
-26.84
-33.60
-41.01
-48.76
-56.44
-63.62
-69.84
-74.43
-76.52
-75.22
-69.95
-60.79
-48.66
-35.03
-21.51
-9.29
1.11
9.75
16.93
22.91
27.71
31.29
33.68
35.17
36.23
37.38
38.91
40.79
42.68
44.05
44.40
43.45
41.21
37.97
34.11
30.04
26.00
22.08
18.24
14.39
10.42
6.29
1.98
-2.50
-7.11
-11.78
-16.42
-20.95
-25.38
-29.87
-34.63
-39.99
-46.19
-53.22
-60.61
-67.46
-72.50
-74.47
-72.46
-66.24
-56.34
-43.86
-30.20
-16.65
-4.17
6.68
15.72
22.95
28.49
32.51
35.22
36.88
37.81
38.31
38.61
38.83
39.00
39.07
38.92
38.45
37.51
36.01
33.94
31.33
28.30
24.91
21.15
16.88
11.94
6.28
0.06
-6.27
-12.17
-17.17
-21.09
-24.10
-26.68
-29.41
-32.82
-37.23
-42.70
-48.94
-55.35
-60.97
-64.66
-65.28
-62.04
-54.76
-43.98
-30.88
-16.91
-3.44
8.54
18.60
26.68
32.89
37.32
40.03
41.09
40.81
39.76
38.65
38.09
38.30
39.03
39.71
39.70
38.62
36.48
33.57
30.22
26.64
22.80
18.51
13.60
8.09
2.22
-3.59
-8.89
-13.38
-16.98
-19.88
-22.53
-25.41
-29.01
-33.60
-39.22
-45.58
-52.08
-57.84
-61.79
-62.89
-60.40
-54.13
-44.60
-32.97
-20.67
-8.99
1.18
9.55
16.18
21.30
25.11
27.72
29.22
29.82
29.85
29.65
29.50
29.46
29.41
29.14
28.52
27.51
26.18
24.57
22.58
19.97
16.51
12.07
6.80
1.07
-4.58
-9.64
-13.79
-17.04
-19.69
-22.30
-25.51
-29.82
-35.39
-41.75
-47.84
-52.22
-53.46
-50.65
-43.70
-33.38
-21.08
-8.37
3.45
13.57
21.70
27.94
32.56
35.87
38.08
39.40
39.98
40.01
39.71
39.35
39.11
39.06
39.04
38.81
38.12
36.83
34.98
32.71
30.13
27.20
23.78
19.73
15.05
9.96
4.81
-0.09
-4.69
-9.24
-14.19
-19.95
-26.59
-33.67
-40.28
-45.28
-47.68
-46.88
-42.89
-36.24
-27.82
-18.60
-9.52
-1.34
5.38
10.32
13.39
14.81
15.00
14.53
13.92
13.51
13.41
13.50
13.54
13.28
12.58
11.45
9.98
8.36
6.66
4.84
2.74
0.08
-3.33
-7.56
-12.46
-17.71
-22.91
-27.81
-32.29
-36.54
-40.90
-45.75
-51.24
-57.10
-62.51
-66.27
-67.13
-64.22
-57.38
-47.26
-35.11
-22.39
-10.35
0.15
8.72
15.22
19.59
21.81
21.97
20.43
17.83
15.02
12.79
11.65
11.65
12.51
13.72
14.84
15.59
15.87
15.66
14.90
13.49
11.30
8.31
4.66
0.65
-3.38
-7.17
-10.64
-13.91
-17.20
-20.84
-25.13
-30.26
-36.21
-42.59
-48.58
-53.00
-54.60
-52.45
-46.34
-36.85
-25.26
-13.10
-1.66
8.24
16.32
22.63
27.30
30.41
32.01
32.29
31.68
30.82
30.31
30.52
31.38
32.41
32.99
32.65
31.30
29.23
26.93
24.80
22.91
20.96
18.48
15.07
10.67
5.67
0.65
-3.82
-7.52
-10.63
-13.67
-17.25
-21.84
-27.60
-34.30
-41.38
-47.89
-52.76
-54.86
-53.39
-48.11
-39.48
-28.54
-16.61
-4.92
5.65
14.60
21.78
27.13
30.68
32.53
32.92
32.30
31.24
30.26
29.74
29.74
30.09
30.47
30.53
30.10
29.14
27.77
26.11
24.26
22.14
19.57
16.32
12.24
7.39
2.01
-3.48
-8.64
-13.10
-16.78
-19.86
-22.81
-26.25
-30.75
-36.54
-43.33
-50.22
-55.86
-58.81
-57.98
-52.95
-44.17
-32.76
-20.17
-7.78
3.37
12.67
19.90
25.02
28.15
29.46
29.29
28.12
26.61
25.41
25.05
25.71
27.14
28.83
30.13
30.55
29.93
28.42
26.36
24.08
21.68
19.08
16.01
12.26
7.78
2.80
-2.29
-7.12
-11.40
-15.12
-18.41
-21.57
-24.94
-28.83
-33.46
-38.89
-44.80
-50.48
-54.79
-56.46
-54.50
-48.56
-39.14
-27.44
-15.01
-3.26
6.86
14.93
20.95
25.07
27.46
28.32
27.90
26.63
25.12
23.98
23.63
24.17
25.30
26.48
27.16
26.98
25.93
24.29
22.49
20.81
19.25
17.51
15.20
11.98
7.82
3.00
-1.96
-6.54
-10.46
-13.72
-16.63
-19.63
-23.18
-27.60
-32.99
-39.14
-45.47
-51.12
-54.97
-55.98
-53.42
-47.15
-37.72
-26.24
-14.10
-2.64
7.19
14.91
20.46
23.99
25.77
26.08
25.26
23.78
22.19
21.01
20.58
20.95
21.84
22.83
23.55
23.75
23.42
22.62
21.46
19.94
18.02
15.54
12.44
8.70
4.47
0.01
-4.39
-8.49
-12.23
-15.70
-19.14
-22.83
-27.00
-31.83
-37.32
-43.28
-49.14
-53.98
-56.59
-55.89
-51.28
-42.94
-31.82
-19.42
-7.24
3.60
12.51
19.40
24.33
27.41
28.66
28.25
26.56
24.25
22.12
20.83
20.68
21.50
22.75
23.79
24.18
23.81
22.86
21.60
20.20
18.56
16.40
13.40
9.48
4.80
-0.21
-5.04
-9.33
-12.96
-16.11
-19.14
-22.50
-26.60
-31.67
-37.59
-43.83
-49.40
-53.09
-53.70
-50.52
-43.51
-33.43
-21.59
-9.49
1.61
10.92
18.17
23.40
26.77
28.45
28.60
27.58
25.92
24.35
23.52
23.73
24.87
26.46
27.90
28.76
28.97
28.67
28.11
27.35
26.19
24.25
21.11
16.63
11.01
4.80
-1.30
-6.70
-11.17
-14.86
-18.21
-21.79
-26.08
-31.30
-37.35
-43.76
-49.68
-53.98
-55.48
-53.33
-47.28
-37.89
-26.36
-14.18
-2.68
7.20
15.05
20.82
24.64
26.66
27.10
26.30
24.79
23.24
22.25
22.20
23.04
24.39
25.68
26.42
26.39
25.68
24.54
23.15
21.48
19.27
16.19
12.06
7.02
1.52
-3.88
-8.71
-12.84
-16.42
-19.90
-23.77
-28.45
-34.11
-40.63
-47.50
-53.96
-59.05
-61.85
-61.76
-58.64
-52.88
-45.25
-36.78
-28.46
-21.15
-15.46
-11.69
-9.90
-9.81
-10.92
-12.57
-14.07
-14.91
-14.96
-14.49
-14.13
-14.68
-16.87
-21.08
-27.24
-34.82
-42.94
-50.62
-57.11
-62.26
-66.55
-70.96
-76.44
-83.28
-90.68
-96.73
-99.00
-95.52
-85.57
-70.18
-51.70
-32.87
-15.65
-0.57
13.27
27.39
42.96
60.04
77.53
93.78
107.45
118.13
126.34
132.98
138.70
143.50
146.81
148.06
147.08
144.34
140.81
137.75
136.40
137.92
143.10
152.14
164.26
177.63
189.56
197.23
198.42
192.18
178.99
160.34
138.21
114.57
91.04
68.88
48.98
31.78
17.17
4.57
-6.96
-18.22
-29.54
-40.49
-49.96
-56.51
-58.91
-56.62
-49.94
-40.01
-28.43
-16.75
-6.16
2.72
9.90
15.66
20.28
23.80
26.06
26.94
26.65
25.90
25.68
26.84
29.50
32.82
35.16
34.75
30.41
22.07
10.80
-1.72
-13.92
-24.92
-34.63
-43.55
-52.25
-61.13
-70.41
-80.31
-91.19
-103.51
-117.45
-132.62
-147.96
-162.08
-173.74
-182.31
-187.71
-190.14
-189.62
-185.92
-178.74
-168.12
-154.62
-138.99
-121.74
-102.77
-81.54
-57.76
-32.06
-6.31
16.95
35.57
48.66
57.02
62.52
67.08
71.65
75.86
78.40
77.91
73.81
66.59
57.60
48.37
39.93
32.56
25.94
19.58
13.22
7.06
1.47
-3.27
-7.28
-11.07
-15.21
-19.99
-25.07
-29.50
-32.12
-32.10
-29.38
-24.82
-19.97
-16.38
-15.12
-16.39
-19.64
-23.94
-28.52
-32.93
-36.90
-40.05
-41.65
-40.73
-36.44
-28.62
-17.93
-5.75
6.32
16.92
25.20
30.82
33.75
34.09
32.06
28.06
22.66
16.56
10.40
4.55
-0.89
-6.06
-11.16
-16.42
-21.93
-27.62
-33.19
-38.05
-41.39
-42.31
-40.08
-34.38
-25.44
-14.03
-1.34
11.36
22.93
32.60
40.00
45.03
47.79
48.41
47.04
44.01
39.86
35.40
31.49
28.80
27.50
27.18
27.04
26.23
24.23
21.00
16.85
12.26
7.51
2.66
-2.45
-7.98
-13.92
-20.11
-26.24
-32.04
-37.44
-42.59
-47.77
-53.25
-58.92
-64.24
-68.22
-69.68
-67.69
-61.97
-53.07
-42.20
-30.80
-20.07
-10.66
-2.65
4.15
9.88
14.46
17.66
19.33
19.65
19.18
18.68
18.70
19.39
20.46
21.37
21.70
21.29
20.21
18.59
16.40
13.46
9.61
4.88
-0.39
-5.68
-10.54
-14.77
-18.49
-22.09
-26.10
-31.00
-37.02
-43.99
-51.19
-57.35
-60.92
-60.51
-55.47
-46.17
-33.93
-20.65
-8.15
2.39
10.49
16.28
20.13
22.41
23.40
23.39
22.81
22.21
22.15
22.93
24.49
26.42
28.15
29.21
29.44
28.90
27.78
26.18
23.98
20.95
16.89
11.78
5.82
-0.70
-7.51
-14.49
-21.61
-28.97
-36.61
-44.49
-52.39
-59.81
-65.90
-69.55
-69.55
-65.07
-55.98
-43.02
-27.70
-11.88
2.83
15.37
25.34
32.85
38.16
41.53
43.17
43.43
42.87
42.25
42.24
43.20
44.90
46.67
47.75
47.64
46.38
44.42
42.34
40.47
38.66
36.40
33.05
28.21
21.89
14.52
6.78
-0.68
-7.40
-13.24
-18.37
-23.26
-28.45
-34.47
-41.56
-49.47
-57.31
-63.69
-67.01
-65.96
-59.98
-49.49
-35.83
-20.79
-6.11
6.95
17.79
26.38
33.04
38.14
41.98
44.78
46.73
48.06
49.06
50.05
51.22
52.64
54.14
55.39
56.01
55.71
54.45
52.44
50.04
47.58
45.20
42.74
39.86
36.19
31.52
25.99
20.00
14.10
8.75
4.17
0.19
-3.57
-7.61
-12.39
-18.21
-25.21
-33.24
-41.85
-50.08
-56.58
-59.83
-58.61
-52.50
-42.13
-29.04
-15.19
-2.29
8.64
17.34
24.10
29.29
33.09
35.52
36.56
36.41
35.54
34.63
34.28
34.78
36.11
37.91
39.69
41.00
41.56
41.24
40.03
37.99
35.21
31.81
27.92
23.64
19.08
14.32
9.44
4.57
-0.09
-4.38
-8.19
-11.60
-14.86
-18.35
-22.46
-27.45
-33.40
-40.09
-46.94
-52.95
-56.92
-57.63
-54.25
-46.71
-35.81
-22.97
-9.87
2.05
11.91
19.39
24.55
27.61
28.80
28.37
26.69
24.36
22.10
20.64
20.45
21.58
23.68
26.13
28.25
29.55
29.86
29.26
28.01
26.35
24.38
21.98
18.92
15.00
10.18
4.69
-1.05
-6.46
-11.10
-14.80
-17.69
-20.23
-22.98
-26.49
-31.08
-36.81
-43.31
-49.78
-55.09
-57.95
-57.26
-52.51
-43.97
-32.72
-20.32
-8.37
1.91
9.95
15.71
19.49
21.66
22.50
22.26
21.21
19.82
18.62
18.11
18.56
19.86
21.56
23.06
23.86
23.75
22.86
21.53
20.13
18.82
17.47
15.74
13.28
9.90
5.71
1.09
-3.46
-7.52
-10.96
-13.93
-16.79
-19.97
-23.85
-28.67
-34.52
-41.21
-48.19
-54.49
-58.85
-60.02
-57.17
-50.24
-40.01
-27.89
-15.47
-4.05
5.61
13.25
18.98
22.99
25.45
26.49
26.32
25.32
23.96
22.81
22.29
22.53
23.35
24.34
25.02
25.07
24.37
23.05
21.37
19.55
17.70
15.74
13.44
10.54
6.89
2.53
-2.29
-7.15
-11.64
-15.53
-18.87
-21.98
-25.35
-29.44
-34.53
-40.65
-47.44
-54.18
-59.82
-63.14
-63.05
-58.96
-50.98
-40.02
-27.47
-14.88
-3.50
5.95
13.28
18.61
22.15
24.10
24.67
24.17
23.14
22.20
21.89
22.47
23.78
25.34
26.59
27.07
26.66
25.56
24.11
22.60
21.12
19.50
17.40
14.50
10.63
5.95
0.83
-4.20
-8.71
-12.52
-15.79
-18.93
-22.46
-26.87
-32.40
-38.95
-45.99
-52.58
-57.47
-59.40
-57.46
-51.46
-42.01
-30.39
-18.20
-6.84
2.76
10.26
15.73
19.44
21.67
22.65
22.65
22.08
21.46
21.31
21.90
23.16
24.69
25.93
26.45
26.09
25.01
23.54
21.99
20.45
18.73
16.49
13.36
9.19
4.08
-1.56
-7.19
-12.32
-16.66
-20.28
-23.56
-27.09
-31.41
-36.91
-43.53
-50.77
-57.55
-62.45
-64.07
-61.40
-54.27
-43.41
-30.34
-16.83
-4.38
6.12
14.40
20.61
25.01
27.76
28.98
28.87
27.91
26.77
26.20
26.69
28.27
30.53
32.77
34.31
34.73
34.02
32.45
30.41
28.18
25.82
23.14
19.87
15.80
10.96
5.58
0.10
-5.06
-9.65
-13.70
-17.49
-21.52
-26.31
-32.30
-39.68
-48.26
-57.34
-65.74
-72.00
-74.75
-73.17
-67.27
-57.93
-46.52
-34.47
-22.81
-12.06
-2.46
5.73
12.02
15.78
16.59
14.64
10.87
6.83
4.14
3.81
5.75
8.66
10.51
9.40
4.63
-2.71
-9.77
-12.77
-8.46
4.73
25.94
52.11
78.82
101.40
116.01
120.43
114.48
100.18
81.33
62.47
47.37
37.60
31.85
26.53
17.37
1.58
-20.91
-47.20
-72.75
-93.00
-104.92
-107.37
-100.75
-86.16
-64.81
-38.03
-7.63
23.78
52.87
76.23
91.30
97.22
95.08
87.58
78.08
69.59
63.90
61.36
61.07
61.59
61.57
60.30
57.74
54.19
49.97
45.03
39.02
31.57
22.64
12.56
1.96
-8.55
-18.72
-28.66
-38.70
-49.10
-59.85
-70.60
-80.89
-90.29
-98.54
-105.53
-111.06
-114.74
-115.85
-113.59
-107.33
-96.99
-83.24
-67.40
-51.04
-35.60
-21.94
-10.20
-0.02
9.22
18.05
26.70
35.14
43.09
50.20
56.11
60.63
63.65
65.23
65.59
65.01
63.79
62.20
60.48
58.81
57.22
55.53
53.32
50.07
45.40
39.33
32.37
25.36
19.10
14.03
9.96
6.16
1.73
-4.07
-11.40
-19.71
-27.78
-34.05
-37.11
-36.06
-30.88
-22.36
-11.89
-0.91
9.39
18.30
25.52
30.93
34.42
35.90
35.44
33.46
30.84
28.62
27.74
28.66
31.15
34.39
37.27
38.74
38.06
34.93
29.41
21.67
11.83
-0.15
-14.46
-31.24
-50.39
-71.24
-92.45
-112.22
-128.61
-140.26
-146.83
-149.15
-149.04
-148.69
-149.98
-153.82
-159.87
-166.64
-171.91
-173.42
-169.53
-159.73
-144.70
-126.04
-105.73
-85.53
-66.57
-49.26
-33.43
-18.46
-3.61
11.91
28.73
47.13
66.88
87.14
106.56
123.56
136.69
145.09
148.59
147.83
143.86
137.85
130.67
122.79
114.24
104.90
94.76
84.05
73.25
62.90
53.47
45.16
37.89
31.30
24.90
18.18
10.68
2.22
-7.03
-16.38
-24.51
-29.81
-30.70
-26.25
-16.60
-2.98
12.57
27.85
41.09
51.27
58.14
61.87
62.77
61.12
57.21
51.57
44.99
38.45
32.85
28.72
26.12
24.71
23.92
23.27
22.53
21.71
21.01
20.57
20.30
19.81
18.48
15.73
11.25
5.20
-1.85
-9.16
-16.17
-22.74
-29.16
-36.00
-43.76
-52.74
-62.86
-73.64
-84.19
-93.30
-99.63
-102.00
-99.75
-92.98
-82.51
-69.65
-55.77
-42.03
-29.27
-18.06
-8.83
-1.87
2.71
5.10
5.76
5.37
4.74
4.74
6.23
9.96
16.37
25.39
36.36
48.17
59.53
69.28
76.52
80.62
81.15
77.87
70.89
60.75
48.47
35.43
22.96
11.99
2.88
-4.61
-11.11
-17.35
-23.97
-31.25
-39.00
-46.52
-52.71
-56.31
-56.29
-52.25
-44.53
-34.19
-22.68
-11.41
-1.44
6.59
12.45
16.10
17.55
16.91
14.46
10.74
6.50
2.58
-0.33
-1.86
-2.04
-1.16
0.32
1.98
3.54
4.82
5.76
6.34
6.49
6.11
5.07
3.28
0.76
-2.33
-5.67
-8.95
-11.95
-14.63
-17.17
-19.93
-23.28
-27.60
-33.13
-39.87
-47.54
-55.43
-62.47
-67.39
-68.99
-66.48
-59.85
-49.79
-37.59
-24.72
-12.41
-1.42
7.94
15.69
21.87
26.49
29.55
31.18
31.79
32.02
32.52
33.76
35.80
38.30
40.71
42.50
43.33
43.16
42.07
40.27
37.87
34.92
31.37
27.20
22.41
17.12
11.56
6.04
0.86
-3.82
-7.94
-11.64
-15.15
-18.73
-22.70
-27.35
-32.95
-39.51
-46.57
-53.14
-57.73
-58.73
-54.97
-46.20
-33.21
-17.65
-1.55
13.32
25.79
35.45
42.52
47.62
51.50
54.88
58.31
62.07
66.15
70.36
74.51
78.59
82.88
87.83
93.74
100.46
107.21
112.85
116.30
117.11
115.84
113.90
112.96
114.11
117.18
120.55
121.53
117.41
106.43
88.64
65.92
41.40
18.46
-0.21
-13.14
-20.22
-22.87
-24.22
-28.86
-41.57
-65.21
-98.46
-135.33
-166.99
-185.56
-187.87
-176.97
-160.31
-145.61
-136.80
-132.37
-127.07
-115.39
-94.86
-67.04
-36.26
-7.25
16.55
33.35
42.52
43.89
37.85
25.68
9.88
-6.14
-19.00
-26.45
-28.04
-24.99
-19.56
-13.97
-9.79
-7.59
-7.16
-7.96
-9.57
-11.97
-15.42
-20.47
-27.52
-36.63
-47.40
-58.87
-69.50
-77.32
-80.26
-76.91
-67.41
-54.00
-40.81
-32.46
-32.16
-40.33
-54.46
-70.32
-83.86
-92.52
-95.38
-92.18
-82.10
-63.33
-33.78
7.42
58.25
113.28
164.73
204.56
226.99
230.15
216.35
190.38
157.30
120.37
80.11
35.29
-15.23
-70.59
-126.93
-178.16
-217.71
-240.72
-245.45
-233.58
-209.22
-177.44
-142.62
-107.33
-71.88
-34.79
6.23
52.86
104.86
159.51
211.94
256.46
288.38
305.48
308.50
300.62
286.12
268.83
251.35
234.96
220.00
206.35
193.41
179.71
162.64
138.92
106.10
64.64
19.32
-20.99
-45.90
-47.46
-23.88
19.16
70.38
117.32
150.97
168.40
172.23
167.62
158.80
147.13
131.58
110.65
84.36
54.89
25.61
-0.79
-23.53
-44.03
-65.01
-88.91
-116.89
-148.80
-183.74
-220.87
-259.53
-298.76
-336.74
-370.59
-397.07
-413.85
-420.51
-418.73
-411.30
-400.80
-388.42
-373.79
-355.73
-333.25
-306.34
-275.94
-243.47
-210.21
-177.10
-144.75
-113.90
-85.54
-60.82
-40.83
-25.97
-15.68
-8.36
-1.86
5.73
15.32
26.41
37.39
46.40
52.25
54.98
55.61
55.28
54.55
53.07
50.12
45.50
40.21
36.39
36.39
41.73
52.21
66.04
80.53
93.22
102.57
108.17
110.37
109.84
107.22
103.09
98.10
93.07
88.91
86.30
85.51
86.18
87.39
88.02
87.09
84.07
79.09
72.75
65.84
58.94
52.23
45.48
38.30
30.29
21.42
11.91
2.14
-7.50
-16.82
-25.85
-34.77
-43.77
-52.89
-61.92
-70.28
-77.13
-81.39
-82.00
-78.07
-69.03
-54.84
-36.23
-14.81
6.84
25.60
38.45
43.41
40.22
30.73
18.48
7.85
2.85
5.93
17.36
35.18
55.75
74.86
88.75
94.97
92.68
82.56
66.35
46.36
24.98
4.36
-13.85
-28.71
-40.11
-48.69
-55.63
-62.28
-69.72
-78.37
-87.79
-96.53
-102.58
-104.06
-100.09
-91.42
-80.47
-70.58
-64.69
-64.25
-68.71
-76.07
-83.86
-90.29
-94.74
-97.56
-99.57
-101.35
-103.04
-104.22
-103.97
-100.92
-93.31
-79.32
-57.54
-27.62
9.34
50.66
92.54
130.69
161.27
181.62
190.80
189.63
180.40
165.98
149.01
131.15
112.90
94.03
74.35
54.32
35.30
19.08
7.17
0.09
-2.81
-3.16
-2.92
-3.68
-6.27
-10.70
-16.45
-22.85
-29.29
-35.28
-40.26
-43.45
-43.95
-41.10
-34.85
-26.10
-16.61
-8.50
-3.62
-2.86
-5.93
-11.63
-18.41
-25.13
-31.46
-37.94
-45.53
-55.14
-67.18
-81.50
-97.59
-114.94
-133.19
-151.94
-170.45
-187.40
-201.09
-209.87
-212.69
-209.29
-199.88
-184.64
-163.43
-136.12
-103.26
-66.84
-30.16
3.18
30.73
52.42
70.32
87.55
106.58
128.19
151.41
174.42
195.51
213.53
227.65
236.91
240.12
236.31
225.47
208.91
189.03
168.47
149.18
131.99
116.64
102.35
88.33
74.13
59.93
46.58
35.47
28.23
26.24
30.05
39.02
51.40
64.86
77.15
86.69
92.78
95.40
94.90
91.61
85.85
77.88
68.13
57.27
46.19
35.94
27.41
21.16
17.19
14.96
13.55
12.00
9.66
6.34
2.31
-1.95
-6.07
-9.96
-13.85
-18.15
-23.24
-29.42
-36.79
-45.18
-54.06
-62.40
-68.78
-71.64
-69.85
-63.08
-52.07
-38.35
-23.79
-10.02
1.94
11.63
18.99
24.09
27.01
27.94
27.32
25.87
24.49
23.97
24.66
26.37
28.38
29.79
29.79
28.05
24.73
20.44
15.89
11.63
7.79
4.10
0.07
-4.84
-10.96
-18.36
-26.90
-36.20
-45.63
-54.20
-60.54
-63.19
-61.00
-53.69
-42.03
-27.75
-12.95
0.62
11.93
20.82
27.57
32.46
35.51
36.52
35.39
32.43
28.42
24.44
21.49
20.11
20.27
21.43
22.80
23.66
23.50
22.18
19.76
16.40
12.31
7.64
2.57
-2.76
-8.15
-13.53
-18.90
-24.47
-30.52
-37.27
-44.55
-51.58
-57.01
-59.18
-56.74
-49.16
-37.02
-21.90
-5.91
8.97
21.41
30.89
37.49
41.64
43.77
44.24
43.37
41.63
39.63
38.00
37.20
37.32
38.07
38.89
39.26
38.85
37.65
35.82
33.45
30.48
26.67
21.72
15.56
8.45
0.96
-6.21
-12.44
-17.50
-21.55
-25.22
-29.39
-34.88
-42.20
-51.24
-61.15
-70.37
-76.95
-79.04
-75.47
-66.14
-52.14
-35.40
-18.15
-2.24
11.22
21.90
29.98
35.74
39.41
41.11
41.09
39.85
38.17
36.88
36.56
37.30
38.69
39.96
40.38
39.51
37.38
34.44
31.26
28.27
25.49
22.54
18.86
14.01
7.98
1.26
-5.41
-11.29
-16.01
-19.68
-22.83
-26.16
-30.30
-35.71
-42.49
-50.29
-58.21
-64.79
-68.32
-67.33
-61.12
-50.10
-35.76
-20.13
-5.19
7.67
17.83
25.30
30.36
33.29
34.30
33.61
31.74
29.40
27.47
26.58
26.92
28.13
29.43
30.02
29.42
27.67
25.25
22.71
20.38
18.12
15.44
11.83
7.08
1.41
-4.56
-10.13
-14.85
-18.70
-22.01
-25.38
-29.42
-34.59
-41.12
-48.85
-57.07
-64.50
-69.40
-70.01
-65.20
-54.98
-40.68
-24.53
-8.92
4.44
14.86
22.56
28.18
32.16
34.55
35.19
34.11
31.87
29.46
27.98
28.08
29.67
31.96
33.88
34.57
33.69
31.53
28.69
25.82
23.20
20.71
17.91
14.31
9.63
3.96
-2.22
-8.25
-13.54
-17.78
-21.08
-23.84
-26.66
-30.12
-34.74
-40.86
-48.50
-57.13
-65.58
-72.06
-74.65
-71.87
-63.41
-50.29
-34.60
-18.77
-4.71
6.69
15.47
22.18
27.29
30.94
32.98
33.37
32.46
31.01
29.96
30.00
31.25
33.27
35.24
36.35
36.15
34.67
32.34
29.68
27.05
24.46
21.61
18.08
13.60
8.22
2.35
-3.46
-8.71
-13.14
-16.86
-20.21
-23.66
-27.62
-32.46
-38.39
-45.42
-53.25
-61.07
-67.54
-71.03
-70.04
-63.78
-52.56
-37.81
-21.59
-5.96
7.66
18.68
27.26
33.82
38.68
41.90
43.41
43.27
41.89
39.96
38.27
37.39
37.44
38.09
38.71
38.65
37.53
35.29
32.26
28.88
25.52
22.31
19.10
15.51
11.25
6.20
0.58
-5.14
-10.45
-15.02
-18.82
-22.19
-25.62
-29.58
-34.40
-40.23
-46.96
-54.17
-61.05
-66.27
-68.24
-65.44
-57.07
-43.42
-25.95
-6.91
11.43
27.39
40.29
50.23
57.71
63.24
67.05
69.33
70.41
70.92
71.68
73.34
75.97
78.94
81.09
81.35
79.11
74.51
68.08
60.27
50.94
39.39
24.84
7.02
-13.40
-34.87
-55.43
-73.37
-87.61
-97.82
-104.21
-107.32
-107.88
-106.76
-104.89
-103.11
-101.90
-101.19
-100.31
-98.22
-93.71
-85.85
-74.24
-59.07
-41.02
-20.88
0.78
23.64
47.33
70.78
91.68
106.64
112.17
106.08
88.82
63.75
36.15
11.35
-7.13
-18.51
-24.33
-27.12
-28.88
-30.36
-31.17
-30.59
-28.41
-25.26
-22.35
-20.76
-20.84
-21.91
-22.63
-21.60
-18.17
-12.73
-6.68
-1.89
0.14
-1.17
-5.11
-9.99
-13.73
-14.73
-12.33
-6.94
0.25
7.85
14.76
20.46
24.98
28.55
31.28
33.06
33.81
34.03
35.22
39.68
49.71
66.31
88.21
111.81
132.34
145.64
149.72
145.21
134.51
120.41
104.86
88.86
73.13
58.96
48.29
42.82
42.49
44.68
44.62
37.28
19.62
-8.01
-42.06
-77.51
-109.84
-136.20
-155.35
-166.53
-168.55
-159.77
-139.20
-107.87
-69.54
-30.00
4.70
30.26
45.42
51.74
52.37
50.41
47.69
44.54
40.41
34.71
27.47
19.39
11.44
4.38
-1.54
-6.47
-10.67
-14.21
-17.07
-19.44
-21.89
-25.38
-30.91
-39.00
-49.42
-61.17
-72.83
-83.05
-90.96
-96.28
-99.18
-100.01
-98.84
-95.19
-88.05
-75.98
-57.56
-32.01
0.35
37.77
77.09
114.20
144.68
164.68
171.60
164.63
144.96
115.48
80.27
43.81
10.18
-17.58
-37.96
-51.06
-58.21
-61.40
-62.61
-63.29
-64.20
-65.53
-67.24
-69.29
-71.70
-74.58
-77.87
-81.36
-84.66
-87.33
-89.04
-89.66
-89.40
-88.77
-88.52
-89.37
-91.74
-95.43
-99.47
-102.19
-101.66
-96.19
-84.97
-68.26
-47.40
-24.36
-1.09
21.09
41.88
61.87
82.05
102.93
123.81
142.63
156.42
162.36
158.87
146.28
126.84
104.04
81.49
62.01
46.94
36.09
28.13
21.27
13.82
4.75
-6.20
-18.54
-31.37
-43.68
-54.58
-63.47
-70.00
-74.20
-76.56
-78.06
-80.12
-84.20
-91.24
-101.11
-112.41
-122.63
-128.88
-128.89
-121.76
-108.32
-90.75
-71.77
-53.71
-37.92
-24.70
-13.71
-4.54
2.91
8.46
11.93
13.53
13.98
14.37
15.67
18.34
22.14
26.25
29.72
31.85
32.46
31.82
30.34
28.21
25.33
21.41
16.26
9.97
2.98
-4.10
-10.71
-16.58
-21.68
-26.23
-30.58
-35.12
-40.29
-46.50
-53.86
-62.02
-69.91
-75.83
-77.88
-74.64
-65.65
-51.73
-34.71
-16.76
0.17
14.89
26.92
36.27
43.12
47.57
49.79
50.07
49.02
47.48
46.29
45.99
46.65
47.93
49.24
50.08
50.24
49.80
48.99
47.91
46.31
43.67
39.46
33.40
25.80
17.42
9.22
1.96
-4.16
-9.51
-14.91
-21.24
-29.12
-38.58
-48.83
-58.29
-64.87
-66.53
-61.96
-51.14
-35.44
-17.27
0.81
16.88
30.10
40.57
48.78
55.03
59.21
61.02
60.47
58.20
55.50
53.79
54.01
56.18
59.38
62.19
63.36
62.36
59.48
55.57
51.58
48.06
45.09
42.49
40.03
37.54
34.76
31.05
25.39
16.68
4.33
-11.32
-29.04
-47.19
-64.46
-80.08
-93.69
-104.77
-112.14
-114.23
-109.78
-98.68
-82.46
-63.80
-45.60
-29.89
-17.38
-7.64
0.21
6.77
12.10
15.81
17.68
17.91
17.28
16.77
17.22
18.90
21.55
24.55
27.27
29.35
30.71
31.47
31.66
31.13
29.46
26.22
21.14
14.38
6.57
-1.35
-8.43
-14.05
-18.10
-20.96
-23.24
-25.51
-28.06
-30.77
-33.16
-34.46
-33.73
-29.97
-22.42
-10.69
5.07
24.09
45.20
67.07
88.55
108.82
127.36
143.72
157.36
167.58
173.68
175.22
172.18
164.99
154.25
140.45
123.84
104.55
82.92
59.87
36.94
15.95
-1.57
-14.93
-24.42
-31.18
-36.59
-41.79
-47.38
-53.32
-59.21
-64.58
-69.19
-73.11
-76.77
-80.69
-85.35
-90.99
-97.53
-104.60
-111.48
-117.14
-120.25
-119.50
-113.94
-103.41
-88.73
-71.59
-54.06
-37.95
-24.43
-13.92
-6.28
-1.10
2.15
4.04
5.18
6.16
7.43
9.15
11.19
13.31
15.36
17.38
19.56
21.99
24.53
26.69
27.83
27.35
24.97
20.78
15.28
9.16
3.11
-2.34
-6.96
-10.78
-14.05
-17.16
-20.56
-24.59
-29.34
-34.42
-38.83
-41.07
-39.46
-32.68
-20.24
-2.64
18.87
42.69
67.31
91.32
113.24
131.32
143.59
148.29
144.51
132.66
114.60
93.14
71.30
51.53
35.26
22.83
13.78
7.27
2.47
-1.29
-4.51
-7.65
-11.19
-15.56
-21.06
-27.63
-34.85
-41.98
-48.33
-53.45
-57.40
-60.65
-63.98
-68.23
-74.01
-81.47
-90.17
-98.99
-106.27
-110.15
-109.04
-102.14
-89.71
-73.07
-54.24
-35.34
-18.08
-3.53
7.99
16.65
22.90
27.31
30.41
32.76
34.82
36.96
39.41
42.21
45.34
48.77
52.57
56.84
61.61
66.66
71.42
74.97
76.19
74.10
68.25
59.25
48.91
40.07
35.76
37.97
46.60
58.99
70.54
76.11
71.87
56.55
31.81
1.60
-29.21
-56.07
-75.70
-86.40
-88.14
-82.18
-70.73
-56.43
-41.79
-28.73
-18.31
-10.76
-5.73
-2.57
-0.47
1.34
3.57
6.76
11.07
16.25
21.72
26.77
30.83
33.75
35.71
37.06
38.08
38.73
38.65
37.30
34.19
29.21
22.71
15.48
8.45
2.35
-2.56
-6.62
-10.61
-15.44
-21.81
-29.93
-39.41
-49.26
-58.01
-63.99
-65.63
-61.96
-52.85
-39.20
-22.70
-5.44
10.68
24.30
34.73
41.86
45.89
47.20
46.27
43.75
40.42
37.12
34.62
33.39
33.51
34.64
36.13
37.34
37.79
37.33
36.14
34.43
32.24
29.33
25.23
19.55
12.25
3.81
-4.89
-12.93
-19.67
-25.07
-29.57
-33.95
-39.01
-45.31
-53.08
-62.05
-71.38
-79.70
-85.31
-86.57
-82.48
-73.10
-59.66
-44.25
-29.21
-16.40
-6.85
-0.60
2.87
4.26
4.20
3.13
1.51
-0.03
-0.74
0.12
2.88
7.38
12.98
19.00
25.07
31.31
38.07
45.51
53.05
59.41
62.95
62.44
57.66
49.53
39.85
30.50
22.76
16.95
12.45
8.22
3.31
-2.79
-9.99
-17.65
-24.74
-30.06
-32.45
-31.10
-25.86
-17.43
-7.30
2.55
10.17
14.20
14.18
10.62
4.66
-2.28
-8.92
-14.26
-17.70
-18.95
-17.98
-15.03
-10.54
-5.09
0.68
6.13
10.81
14.43
16.87
18.18
18.41
17.54
15.50
12.11
7.28
1.07
-6.21
-14.05
-21.93
-29.51
-36.85
-44.38
-52.75
-62.58
-74.07
-86.78
-99.60
-110.86
-118.64
-121.33
-118.03
-108.93
-95.27
-78.97
-62.16
-46.49
-32.88
-21.53
-12.17
-4.41
2.03
7.34
11.76
15.65
19.46
23.50
27.81
32.08
35.78
38.37
39.56
39.45
38.37
36.68
34.63
32.16
29.03
24.93
19.74
13.58
6.84
-0.01
-6.59
-12.77
-18.76
-25.03
-32.16
-40.69
-50.79
-62.06
-73.34
-82.80
-88.36
-88.35
-82.08
-70.13
-54.14
-36.20
-18.18
-1.32
13.74
26.61
36.86
44.06
47.99
49.00
48.10
46.67
46.00
46.77
48.90
51.73
54.37
56.11
56.61
55.90
54.16
51.56
48.12
43.72
38.23
31.64
24.16
16.23
8.40
1.17
-5.25
-10.99
-16.58
-22.78
-30.28
-39.38
-49.57
-59.46
-66.97
-69.89
-66.60
-56.75
-41.44
-22.87
-3.69
13.87
28.43
39.60
47.62
52.99
56.14
57.44
57.30
56.20
54.73
53.42
52.54
52.03
51.60
50.84
49.44
47.20
43.95
39.53
33.66
26.12
16.89
6.29
-4.97
-16.03
-26.13
-34.87
-42.33
-49.06
-55.86
-63.55
-72.61
-82.97
-93.68
-103.01
-108.72
-108.72
-101.78
-88.06
-69.16
-47.64
-26.22
-7.05
8.67
20.67
29.23
34.85
38.04
39.29
39.16
38.31
37.42
37.02
37.37
38.41
39.84
41.26
42.31
42.79
42.56
41.49
39.42
36.15
31.57
25.75
18.95
11.60
4.09
-3.32
-10.62
-18.08
-26.16
-35.34
-45.87
-57.47
-69.06
-78.84
-84.60
-84.36
-77.12
-63.27
-44.53
-23.50
-2.88
15.27
29.75
40.29
47.19
51.03
52.47
52.25
51.09
49.71
48.69
48.36
48.75
49.63
50.61
51.29
51.36
50.61
48.90
46.12
42.20
37.09
30.92
23.96
16.62
9.34
2.43
-4.03
-10.24
-16.65
-23.83
-32.29
-42.28
-53.51
-64.90
-74.60
-80.37
-80.23
-73.18
-59.72
-41.75
-21.97
-3.02
13.31
26.28
36.07
43.20
48.09
51.00
52.11
51.78
50.64
49.49
48.98
49.40
50.54
51.87
52.79
52.90
52.10
50.47
48.12
45.06
41.05
35.86
29.36
21.71
13.38
4.97
-2.99
-10.27
-17.02
-23.73
-31.06
-39.62
-49.65
-60.80
-71.93
-81.22
-86.61
-86.40
-79.88
-67.65
-51.49
-33.76
-16.60
-1.41
11.24
21.39
29.26
34.90
38.34
39.71
39.52
38.66
38.08
38.48
40.09
42.63
45.44
47.91
49.55
50.09
49.45
47.59
44.52
40.27
34.98
28.92
22.42
15.85
9.49
3.49
-2.16
-7.66
-13.45
-20.03
-27.81
-36.77
-46.17
-54.49
-59.69
-59.85
-53.79
-41.59
-24.59
-5.07
14.51
32.05
46.25
56.57
62.97
65.66
65.00
61.60
56.50
51.19
47.35
46.38
48.94
54.67
62.27
70.00
76.11
79.32
79.05
75.39
68.85
60.25
50.45
40.17
29.90
19.81
9.78
-0.45
-11.16
-22.59
-34.93
-48.28
-62.53
-77.09
-90.72
-101.54
-107.43
-106.74
-98.99
-85.16
-67.50
-48.77
-31.34
-16.63
-5.02
3.82
10.41
15.08
17.91
18.95
18.44
16.91
15.13
13.87
13.71
14.87
17.13
19.88
22.29
23.55
23.09
20.83
17.10
12.50
7.56
2.57
-2.45
-7.69
-13.36
-19.58
-26.51
-34.35
-43.30
-53.26
-63.45
-72.32
-77.77
-77.84
-71.48
-59.09
-42.49
-24.36
-7.30
6.95
17.84
25.78
31.58
35.86
38.81
40.27
40.07
38.38
35.86
33.41
31.83
31.46
31.99
32.67
32.64
31.30
28.48
24.37
19.39
13.92
8.22
2.39
-3.52
-9.46
-15.39
-21.38
-27.68
-34.72
-42.90
-52.21
-61.89
-70.38
-75.54
-75.46
-69.13
-56.96
-40.71
-22.92
-5.95
8.57
20.11
28.94
35.60
40.48
43.61
44.87
44.29
42.27
39.61
37.21
35.72
35.28
35.46
35.54
34.77
32.67
29.24
24.78
19.74
14.50
9.28
4.08
-1.22
-6.77
-12.76
-19.43
-27.01
-35.58
-44.78
-53.66
-60.62
-63.86
-61.92
-54.35
-41.95
-26.60
-10.66
3.81
15.55
24.26
30.26
34.03
35.92
36.01
34.38
31.43
27.91
24.85
23.13
23.07
24.27
25.71
26.18
24.76
21.11
15.58
8.91
1.88
-4.99
-11.62
-18.24
-25.27
-33.07
-41.83
-51.49
-61.70
-71.77
-80.54
-86.57
-88.31
-84.71
-75.54
-61.71
-45.07
-27.88
-12.15
0.83
10.62
17.40
21.58
23.51
23.46
21.79
19.11
16.31
14.44
14.27
16.03
19.26
22.89
25.67
26.62
25.41
22.41
18.45
14.49
11.11
8.37
5.81
2.75
-1.47
-7.21
-14.53
-23.09
-32.09
-40.27
-45.97
-47.53
-43.78
-34.62
-21.21
-5.72
9.39
22.03
31.11
36.53
38.86
38.91
37.33
34.56
30.84
26.42
21.64
16.96
12.90
9.89
8.16
7.63
7.99
8.85
9.89
11.05
12.39
14.03
15.85
17.54
18.60
18.64
17.46
15.10
11.66
7.19
1.68
-4.82
-11.79
-18.24
-22.86
-24.40
-22.30
-16.88
-9.28
-0.98
6.69
13.00
17.73
21.00
22.97
23.69
23.25
22.01
20.64
20.03
20.87
23.40
27.20
31.33
34.70
36.38
35.90
33.25
28.84
23.35
17.49
11.89
7.03
3.09
-0.04
-2.71
-5.45
-8.82
-13.29
-19.02
-25.64
-32.10
-36.77
-37.78
-33.72
-24.20
-10.26
5.86
21.38
33.93
42.24
46.35
47.30
46.49
45.18
44.20
43.99
44.82
46.88
50.19
54.47
59.05
62.97
65.29
65.39
63.18
59.10
53.83
47.98
41.92
35.69
29.18
22.28
15.08
7.76
0.58
-6.29
-12.82
-19.11
-25.33
-31.68
-38.35
-45.60
-53.61
-62.41
-71.63
-80.37
-87.18
-90.42
-88.75
-81.70
-70.01
-55.53
-40.62
-27.49
-17.49
-10.99
-7.52
-6.33
-6.70
-8.17
-10.40
-13.00
-15.42
-17.04
-17.43
-16.53
-14.69
-12.49
-10.48
-9.06
-8.39
-8.50
-9.42
-11.27
-14.15
-18.14
-23.11
-28.73
-34.52
-39.94
-44.58
-48.20
-50.83
-52.76
-54.51
-56.65
-59.69
-63.77
-68.46
-72.66
-74.78
-73.20
-66.81
-55.52
-40.36
-23.22
-6.32
8.42
19.79
27.34
31.26
32.16
30.76
27.87
24.29
20.72
17.76
15.72
14.71
14.60
15.11
15.87
16.50
16.67
16.23
15.14
13.47
11.30
8.64
5.41
1.56
-2.81
-7.36
-11.75
-15.78
-19.62
-23.81
-29.01
-35.60
-43.39
-51.41
-58.15
-61.95
-61.42
-55.98
-45.96
-32.62
-17.76
-3.30
9.25
18.94
25.49
29.08
30.07
28.92
26.12
22.20
17.83
13.67
10.31
8.13
7.15
7.12
7.58
8.02
7.97
7.09
5.19
2.26
-1.61
-6.18
-11.17
-16.24
-21.10
-25.60
-29.75
-33.80
-38.25
-43.72
-50.71
-59.20
-68.41
-76.71
-81.95
-82.08
-75.98
-63.95
-47.71
-29.84
-12.98
1.00
11.29
18.01
21.76
23.18
22.75
20.85
17.98
14.87
12.41
11.40
12.26
14.80
18.29
21.68
23.95
24.38
22.82
19.52
15.04
9.99
4.83
-0.18
-5.00
-9.69
-14.43
-19.51
-25.36
-32.40
-40.84
-50.26
-59.41
-66.33
-68.87
-65.48
-55.87
-41.28
-24.03
-6.73
8.50
20.52
29.12
34.65
37.51
38.01
36.40
33.07
28.73
24.32
20.83
18.94
18.85
20.21
22.26
24.14
25.07
24.64
22.80
19.83
16.13
12.04
7.71
3.04
-2.18
-8.30
-15.61
-24.33
-34.38
-45.26
-55.86
-64.49
-69.26
-68.58
-61.82
-49.55
-33.51
-16.03
0.59
14.73
25.56
32.97
37.18
38.48
37.15
33.61
28.62
23.26
18.74
15.99
15.34
16.37
18.04
19.18
18.87
16.80
13.24
8.82
4.17
-0.37
-4.86
-9.69
-15.37
-22.36
-30.89
-40.83
-51.55
-61.90
-70.21
-74.63
-73.60
-66.38
-53.42
-36.31
-17.39
0.97
16.98
29.67
38.83
44.67
47.49
47.55
45.24
41.21
36.49
32.35
29.90
29.69
31.47
34.19
36.45
37.01
35.19
31.08
25.38
18.97
12.54
6.29
0.01
-6.83
-14.75
-24.19
-35.24
-47.51
-59.92
-70.66
-77.44
-78.13
-71.41
-57.47
-38.04
-15.94
5.84
25.01
40.46
52.12
60.43
65.79
68.36
68.13
65.31
60.61
55.14
50.15
46.51
44.43
43.42
42.51
40.58
36.70
30.36
21.50
10.48
-2.09
-15.49
-28.87
-41.30
-51.72
-59.12
-62.80
-62.64
-59.16
-53.26
-45.75
-36.96
-26.66
-14.44
-0.28
15.17
30.63
44.66
56.20
64.78
70.42
73.24
73.28
70.51
65.19
58.08
50.46
43.73
38.95
36.38
35.46
34.99
33.74
30.82
26.05
19.86
13.00
6.14
-0.41
-6.86
-13.76
-21.76
-31.29
-42.39
-54.45
-66.22
-75.91
-81.55
-81.52
-75.09
-62.78
-46.24
-27.78
-9.66
6.52
20.02
30.72
38.74
44.09
46.63
46.36
43.66
39.50
35.23
32.07
30.66
30.78
31.49
31.60
30.21
27.13
22.79
17.98
13.29
8.88
4.36
-0.91
-7.56
-15.97
-26.15
-37.63
-49.39
-59.89
-67.13
-69.20
-64.84
-54.01
-38.02
-19.25
-0.32
16.73
30.83
41.92
50.41
56.66
60.73
62.40
61.64
58.88
55.09
51.53
49.20
48.47
48.89
49.43
48.93
46.62
42.31
36.38
29.51
22.36
15.34
8.59
2.00
-4.71
-11.79
-19.60
-28.45
-38.60
-49.96
-61.90
-73.04
-81.40
-84.85
-81.78
-71.75
-55.78
-36.03
-15.14
4.59
21.73
35.78
46.84
55.13
60.79
63.90
64.76
64.09
62.89
62.10
62.18
62.90
63.48
63.04
61.03
57.47
52.91
48.07
43.45
39.09
34.56
29.22
22.56
14.56
5.71
-3.13
-11.11
-17.76
-23.16
-27.96
-33.09
-39.47
-47.73
-58.02
-69.84
-81.95
-92.47
-99.13
-99.83
-93.34
-79.81
-60.84
-39.02
-17.14
2.65
19.27
32.59
43.02
50.93
56.48
59.65
60.61
59.97
58.76
58.11
58.80
60.87
63.65
66.01
66.91
65.84
62.93
58.80
54.21
49.65
45.17
40.38
34.76
27.90
19.80
10.86
1.80
-6.67
-14.09
-20.52
-26.43
-32.57
-39.65
-48.13
-58.12
-69.45
-81.57
-93.52
-103.74
-110.26
-111.04
-104.74
-91.23
-71.88
-49.10
-25.64
-3.73
15.37
31.29
44.18
54.18
61.29
65.42
66.74
65.80
63.56
61.04
59.04
57.87
57.31
56.79
55.61
53.14
48.98
42.94
35.04
25.48
14.64
3.08
-8.45
-19.10
-28.12
-34.93
-39.36
-41.58
-42.11
-41.67
-40.86
-39.94
-38.61
-36.11
-31.68
-25.23
-17.96
-12.32
-11.24
-16.73
-28.61
-43.95
-57.77
-64.57
-60.33
-43.78
-16.69
16.98
52.57
85.95
114.38
136.66
152.98
164.56
173.39
181.69
191.36
203.15
216.04
227.17
232.46
227.81
210.54
180.46
140.11
94.12
47.96
6.58
-26.61
-50.17
-64.45
-71.11
-72.44
-70.85
-68.42
-66.71
-66.60
-68.27
-71.39
-75.28
-79.17
-82.57
-85.33
-87.73
-90.28
-93.54
-97.89
-103.36
-109.48
-115.29
-119.40
-120.37
-117.07
-109.17
-97.21
-82.48
-66.58
-50.89
-36.31
-23.21
-11.76
-2.12
5.41
10.48
12.99
13.24
11.99
10.31
9.25
9.57
11.49
14.63
18.19
21.19
22.80
22.55
20.42
16.77
12.16
7.17
2.22
-2.51
-7.12
-11.86
-17.01
-22.70
-28.81
-34.96
-40.70
-45.69
-49.93
-53.82
-58.04
-63.42
-70.58
-79.69
-90.22
-100.96
-110.09
-115.69
-116.32
-111.51
-102.03
-89.68
-76.72
-65.10
-55.97
-49.34
-44.40
-40.01
-35.28
-30.02
-24.79
-20.54
-17.94
-16.84
-15.87
-12.79
-5.26
8.18
27.42
50.52
74.27
95.17
110.30
118.05
118.30
112.09
101.24
87.75
73.51
60.05
48.40
39.05
31.93
26.53
22.06
17.76
12.99
7.45
1.15
-5.73
-13.00
-20.65
-28.90
-38.11
-48.42
-59.45
-70.01
-78.21
-82.05
-80.10
-72.14
-59.41
-44.23
-29.22
-16.48
-7.11
-1.14
2.01
3.11
2.74
1.27
-0.94
-3.40
-5.43
-6.27
-5.29
-2.30
2.49
8.57
15.33
22.19
28.74
34.69
39.78
43.80
46.61
48.20
48.79
48.76
48.58
48.56
48.78
48.97
48.66
47.37
44.78
40.92
36.11
30.83
25.50
20.20
14.67
8.24
0.15
-10.17
-22.64
-36.27
-49.14
-58.71
-62.61
-59.38
-49.09
-33.37
-14.89
3.51
19.66
32.48
41.88
48.28
52.15
53.73
53.18
50.84
47.44
44.06
41.71
40.94
41.59
42.91
43.94
43.94
42.66
40.31
37.32
33.96
30.27
26.09
21.28
15.95
10.53
5.61
1.62
-1.34
-3.63
-5.91
-8.86
-12.90
-18.03
-23.87
-29.88
-35.59
-40.81
-45.68
-50.70
-56.50
-63.66
-72.41
-82.34
-92.22
-100.16
-104.01
-102.03
-93.50
-79.13
-60.83
-41.15
-22.52
-6.59
6.03
15.54
22.50
27.42
30.48
31.71
31.23
29.45
27.11
25.07
24.01
24.17
25.30
26.80
27.92
27.97
26.46
23.23
18.49
12.90
7.33
2.68
-0.53
-2.45
-3.82
-5.64
-8.67
-12.82
-17.09
-19.81
-19.33
-14.84
-6.81
3.05
12.29
18.70
21.34
21.10
20.78
24.42
36.23
59.21
93.84
137.25
183.36
224.08
251.45
259.97
248.21
219.27
179.81
138.02
101.20
73.74
56.27
46.05
38.51
29.22
15.38
-3.50
-26.12
-50.43
-74.42
-96.49
-115.17
-128.71
-135.23
-133.64
-124.71
-111.65
-99.42
-92.96
-95.19
-105.77
-121.39
-137.23
-149.14
-155.12
-155.76
-153.52
-151.30
-151.16
-153.61
-157.69
-161.59
-163.53
-162.29
-157.47
-149.35
-138.58
-125.92
-112.00
-97.30
-82.21
-67.18
-52.75
-39.48
-27.78
-17.75
-9.12
-1.38
6.06
13.60
21.35
29.09
36.52
43.34
49.48
55.06
60.31
65.39
70.22
74.37
77.28
78.36
77.32
74.22
69.48
63.72
57.50
51.15
44.68
37.84
30.24
21.62
11.97
1.77
-8.07
-16.31
-21.62
-22.94
-19.84
-12.72
-2.95
7.34
15.66
19.92
19.07
13.60
5.39
-2.90
-8.73
-10.52
-8.06
-2.37
4.86
11.95
17.67
21.33
22.79
22.14
19.66
15.77
11.00
5.89
0.88
-3.78
-8.14
-12.45
-17.04
-22.17
-27.97
-34.48
-41.70
-49.66
-58.42
-68.01
-78.32
-88.93
-99.02
-107.27
-112.13
-112.14
-106.33
-94.70
-78.26
-58.78
-38.36
-18.85
-1.53
12.99
24.55
33.31
39.62
43.97
47.01
49.50
52.13
55.29
59.03
62.99
66.66
69.52
71.19
71.54
70.54
68.27
64.78
60.21
54.75
48.72
42.58
36.75
31.54
26.87
22.36
17.23
10.52
1.27
-11.13
-26.60
-44.08
-61.47
-75.90
-84.52
-85.34
-77.94
-63.63
-44.97
-24.88
-5.82
10.62
23.60
32.60
37.16
36.92
32.09
23.80
14.19
5.93
1.40
1.89
7.20
15.85
25.78
35.22
43.22
49.79
55.42
60.56
65.16
68.65
70.35
69.96
67.91
65.21
63.08
62.30
62.90
64.31
65.75
66.76
67.42
68.32
70.07
73.05
77.13
81.73
85.94
88.58
88.23
83.23
72.04
53.75
28.78
-0.79
-31.40
-58.98
-80.13
-93.17
-98.58
-98.40
-95.33
-91.59
-88.31
-85.52
-82.66
-79.18
-74.89
-69.97
-64.75
-59.47
-54.15
-48.76
-43.38
-38.29
-33.92
-30.63
-28.61
-27.86
-28.21
-29.49
-31.59
-34.36
-37.62
-41.11
-44.56
-47.81
-50.90
-54.14
-58.03
-63.20
-70.18
-79.21
-89.91
-101.06
-110.61
-115.99
-114.82
-105.73
-88.92
-66.19
-40.39
-14.52
9.11
29.29
45.80
58.96
69.14
76.56
81.36
83.84
84.63
84.66
84.89
86.06
88.44
91.88
95.88
99.83
103.16
105.44
106.39
105.77
103.41
99.25
93.37
86.01
77.64
68.79
59.96
51.48
43.45
35.85
28.61
21.74
15.33
9.46
4.04
-1.25
-7.01
-13.92
-22.48
-32.76
-44.11
-55.09
-63.63
-67.47
-64.87
-55.22
-39.47
-20.02
-0.02
17.53
30.71
39.09
43.54
45.65
46.86
47.93
48.88
49.25
48.66
47.15
45.13
43.12
41.29
39.34
36.57
32.45
27.01
21.01
15.59
11.73
9.70
8.86
7.89
5.37
0.38
-7.15
-16.41
-26.03
-34.66
-41.38
-46.02
-49.09
-51.59
-54.71
-59.46
-66.42
-75.45
-85.60
-95.06
-101.51
-102.69
-97.21
-85.02
-67.52
-47.11
-26.35
-7.28
8.99
22.16
32.28
39.45
43.65
45.02
44.07
41.82
39.56
38.45
39.15
41.55
44.98
48.40
50.88
51.79
50.91
48.35
44.41
39.41
33.65
27.33
20.58
13.36
5.57
-2.84
-11.77
-20.91
-29.79
-37.97
-45.23
-51.69
-57.78
-64.13
-71.43
-80.22
-90.79
-102.88
-115.45
-126.60
-133.79
-134.57
-127.36
-112.18
-90.74
-65.93
-40.93
-18.28
0.57
15.22
25.91
33.08
37.18
38.61
37.97
36.08
33.93
32.46
32.24
33.38
35.46
37.72
39.34
39.71
38.58
36.07
32.52
28.32
23.72
18.88
13.76
8.28
2.34
-4.12
-11.10
-18.50
-26.13
-33.69
-40.87
-47.49
-53.58
-59.45
-65.65
-72.83
-81.51
-91.74
-102.81
-113.13
-120.40
-122.16
-116.56
-103.13
-83.03
-58.81
-33.56
-10.01
10.19
26.53
39.25
48.80
55.47
59.41
60.95
60.78
59.99
59.80
61.05
63.89
67.77
71.62
74.39
75.37
74.45
72.05
68.88
65.61
62.56
59.62
56.30
52.05
46.52
39.85
32.61
25.61
19.56
14.78
11.09
7.95
4.63
0.41
-5.20
-12.37
-20.65
-28.83
-34.84
-36.15
-30.49
-16.74
4.46
30.77
58.90
85.71
109.13
128.53
144.42
157.73
169.25
179.25
187.53
193.58
196.79
196.61
192.61
184.79
173.63
160.22
145.99
132.36
120.34
110.29
102.03
95.00
88.64
82.47
76.25
69.87
63.30
56.65
50.09
43.87
38.17
32.99
28.11
23.11
17.52
10.92
3.03
-6.29
-17.02
-28.89
-41.30
-53.26
-63.56
-71.03
-75.00
-75.55
-73.46
-69.89
-65.82
-61.74
-57.56
-53.09
-48.41
-44.15
-41.36
-40.95
-43.19
-47.38
-52.11
-55.79
-57.36
-56.72
-54.75
-52.90
-52.60
-54.68
-59.14
-65.29
-72.12
-78.71
-84.60
-89.81
-94.71
-99.75
-105.19
-111.05
-117.12
-123.09
-128.74
-133.94
-138.68
-143.04
-147.18
-151.38
-155.99
-161.31
-167.33
-173.39
-178.06
-179.31
-175.12
-164.15
-146.38
-123.26
-97.27
-71.23
-47.40
-27.13
-10.74
2.00
11.57
18.39
22.85
25.58
27.44
29.41
32.30
36.38
41.29
46.23
50.41
53.40
55.22
56.22
56.71
56.62
55.49
52.66
47.65
40.49
31.78
22.57
13.92
6.53
0.50
-4.74
-10.12
-16.72
-25.34
-36.19
-48.62
-61.07
-71.22
-76.49
-74.84
-65.49
-49.27
-28.50
-6.27
14.50
31.83
44.91
53.89
59.36
61.95
62.16
60.49
57.57
54.29
51.57
50.10
50.08
51.13
52.50
53.40
53.34
52.30
50.55
48.35
45.66
42.06
36.92
29.84
20.95
10.98
1.03
-7.92
-15.41
-21.64
-27.42
-33.82
-41.85
-52.08
-64.36
-77.61
-89.78
-98.23
-100.34
-94.43
-80.39
-59.88
-35.86
-11.61
10.11
27.75
40.86
49.79
55.09
57.34
57.13
55.24
52.69
50.57
49.64
50.05
51.30
52.50
52.82
51.90
49.87
47.28
44.58
41.86
38.75
34.58
28.80
21.26
12.35
2.84
-6.39
-14.73
-22.05
-28.71
-35.43
-43.10
-52.41
-63.54
-75.83
-87.54
-96.13
-98.87
-93.75
-80.35
-60.10
-35.89
-11.03
11.75
31.03
46.57
58.80
68.05
74.27
77.17
76.78
73.90
70.12
67.29
66.84
69.14
73.29
77.58
80.14
79.53
75.18
67.29
56.77
44.90
33.22
23.22
16.08
12.34
11.62
12.74
14.03
13.81
10.80
4.25
-6.21
-20.75
-39.30
-61.30
-85.20
-108.32
-127.09
-137.90
-138.24
-127.64
-107.96
-82.81
-56.41
-32.24
-12.28
3.06
14.38
22.47
27.79
30.46
30.72
29.24
27.26
26.27
27.34
30.70
35.57
40.66
44.64
46.78
47.13
46.27
44.93
43.45
41.67
38.98
34.77
28.75
21.25
13.07
5.23
-1.49
-6.86
-11.23
-15.45
-20.53
-27.41
-36.63
-48.01
-60.49
-72.07
-80.12
-82.02
-76.07
-62.20
-42.09
-18.79
4.34
24.55
40.39
51.62
58.81
62.69
63.90
62.95
60.45
57.29
54.49
52.93
53.00
54.44
56.46
58.11
58.67
57.87
55.93
53.24
50.12
46.54
42.14
36.43
29.14
20.41
10.85
1.31
-7.46
-15.07
-21.68
-27.91
-34.66
-42.75
-52.61
-63.92
-75.36
-84.77
-89.57
-87.63
-78.00
-61.39
-40.03
-16.93
4.98
23.66
38.16
48.42
54.79
57.65
57.41
54.67
50.38
45.82
42.28
40.60
40.90
42.57
44.57
45.90
45.95
44.64
42.32
39.49
36.41
32.99
28.83
23.40
16.42
8.03
-1.14
-10.21
-18.36
-25.14
-30.69
-35.64
-40.97
-47.64
-56.33
-67.09
-79.10
-90.59
-99.11
-102.07
-97.60
-85.24
-66.22
-43.19
-19.36
2.43
20.43
34.09
43.74
50.06
53.56
54.62
53.56
50.98
47.81
45.09
43.66
43.78
45.01
46.43
47.04
46.22
43.93
40.67
37.11
33.72
30.50
26.99
22.52
16.55
8.97
0.25
-8.73
-16.97
-23.78
-28.99
-33.11
-37.11
-42.13
-49.10
-58.37
-69.43
-80.84
-90.33
-95.34
-93.71
-84.45
-68.15
-46.97
-23.96
-2.16
16.28
30.41
40.41
47.03
50.99
52.74
52.51
50.60
47.66
44.63
42.54
42.11
43.42
45.86
48.38
49.93
49.84
48.08
45.09
41.52
37.87
34.21
30.21
25.33
19.13
11.51
2.82
-6.25
-14.91
-22.54
-28.83
-33.89
-38.14
-42.21
-46.82
-52.69
-60.28
-69.59
-79.77
-89.11
-95.24
-95.81
-89.29
-75.61
-56.32
-34.10
-11.93
7.78
23.64
35.34
43.18
47.69
49.33
48.56
46.04
42.71
39.76
38.22
38.61
40.70
43.62
46.23
47.57
47.30
45.64
43.22
40.64
38.17
35.62
32.46
28.10
22.18
14.79
6.45
-2.00
-9.70
-16.10
-21.15
-25.34
-29.55
-34.71
-41.49
-50.02
-59.78
-69.51
-77.42
-81.47
-79.93
-71.97
-58.01
-39.70
-19.54
-0.08
16.74
29.88
39.20
45.03
47.86
48.10
46.19
42.78
38.80
35.37
33.48
33.66
35.72
38.83
41.83
43.70
43.91
42.56
40.17
37.37
34.52
31.53
27.97
23.33
17.22
9.71
1.25
-7.41
-15.53
-22.56
-28.40
-33.44
-38.36
-43.95
-50.88
-59.42
-69.32
-79.63
-88.75
-94.62
-95.21
-89.14
-76.30
-58.00
-36.68
-15.22
3.93
19.32
30.59
38.15
42.71
44.88
45.13
43.87
41.61
39.07
36.97
35.94
36.22
37.60
39.46
40.99
41.50
40.64
38.50
35.53
32.25
28.99
25.75
22.21
17.96
12.75
6.61
-0.07
-6.71
-12.82
-18.11
-22.62
-26.70
-30.86
-35.67
-41.63
-49.07
-57.96
-67.68
-76.96
-83.90
-86.43
-82.94
-72.88
-57.11
-37.77
-17.52
1.18
16.74
28.58
36.91
42.22
44.96
45.46
44.09
41.44
38.43
36.08
35.21
36.10
38.39
41.22
43.61
44.84
44.68
43.40
41.50
39.45
37.41
35.14
32.21
28.19
22.91
16.61
9.88
3.48
-1.96
-6.16
-9.31
-12.02
-15.05
-19.04
-24.37
-31.08
-38.87
-47.19
-55.06
-61.20
-64.14
-62.74
-56.59
-46.34
-33.47
-19.64
-6.01
7.24
20.58
34.51
48.76
62.04
72.47
78.37
79.12
75.40
68.83
61.19
53.82
47.22
41.21
35.41
29.54
23.69
18.14
13.20
8.92
4.99
0.86
-4.03
-9.96
-16.74
-23.71
-30.02
-35.00
-38.47
-40.82
-42.87
-45.55
-49.61
-55.50
-63.20
-72.21
-81.47
-89.35
-93.91
-93.36
-86.67
-74.04
-56.92
-37.58
-18.42
-1.33
12.64
23.23
30.58
35.00
36.78
36.34
34.30
31.56
29.13
27.85
28.13
29.80
32.19
34.48
35.94
36.19
35.26
33.48
31.24
28.79
26.06
22.69
18.20
12.29
5.03
-3.07
-11.22
-18.67
-24.95
-30.14
-34.70
-39.40
-44.97
-51.95
-60.47
-70.14
-79.90
-88.02
-92.40
-91.06
-82.91
-68.20
-48.70
-27.08
-6.17
11.89
26.01
36.03
42.36
45.48
45.87
44.04
40.69
36.82
33.51
31.60
31.38
32.54
34.24
35.60
35.93
35.01
33.11
30.70
28.19
25.59
22.53
18.45
12.91
5.98
-1.78
-9.46
-16.23
-21.65
-25.82
-29.33
-32.98
-37.57
-43.63
-51.33
-60.18
-68.97
-75.87
-78.71
-75.70
-66.04
-50.34
-30.52
-9.17
11.21
28.88
43.07
53.80
61.46
66.47
69.13
69.85
69.21
68.10
67.48
68.05
70.02
73.03
76.42
79.56
82.06
83.90
85.22
86.15
86.66
86.60
85.86
84.53
82.91
81.37
80.17
79.27
78.31
76.67
73.52
68.04
59.54
47.88
33.77
18.92
5.81
-3.03
-5.89
-2.49
5.87
16.90
28.13
37.60
44.20
47.46
47.26
43.62
36.81
27.53
17.03
6.86
-1.69
-7.97
-12.14
-14.92
-17.16
-19.48
-22.26
-25.80
-30.47
-36.70
-44.76
-54.42
-65.00
-75.55
-85.40
-94.44
-103.14
-112.14
-121.64
-131.17
-139.70
-146.24
-150.42
-152.77
-154.33
-155.87
-157.08
-156.37
-151.19
-138.81
-117.29
-86.02
-45.98
0.27
48.61
93.69
129.64
151.22
155.27
141.80
114.20
78.16
40.03
5.05
-23.67
-45.05
-59.36
-67.35
-69.86
-67.83
-62.58
-55.84
-49.60
-45.49
-44.37
-46.11
-49.71
-53.80
-57.14
-59.05
-59.53
-59.11
-58.69
-59.14
-61.21
-65.36
-71.80
-80.31
-90.10
-99.69
-107.02
-109.84
-106.36
-95.87
-79.06
-57.94
-35.22
-13.56
5.01
19.41
29.43
35.41
37.94
37.72
35.53
32.32
29.10
26.81
25.95
26.43
27.56
28.31
27.82
25.77
22.47
18.67
15.05
11.84
8.66
4.77
-0.56
-7.51
-15.69
-24.23
-32.25
-39.26
-45.32
-50.93
-56.79
-63.51
-71.43
-80.57
-90.48
-100.12
-107.76
-111.21
-108.38
-97.98
-80.20
-56.83
-30.79
-5.23
17.34
35.58
49.20
58.58
64.23
66.62
66.23
63.87
60.70
58.09
57.15
58.32
61.16
64.51
67.05
67.79
66.51
63.61
59.85
55.81
51.59
46.84
41.01
33.77
25.28
16.24
7.57
0.06
-5.96
-10.74
-15.09
-20.08
-26.68
-35.46
-46.03
-56.96
-65.74
-69.44
-65.52
-52.78
-31.90
-5.34
23.48
51.30
75.92
96.57
113.66
128.22
141.31
153.70
165.72
177.09
186.89
193.46
194.84
189.24
175.71
154.65
127.70
97.40
66.55
37.68
12.68
-7.33
-22.17
-32.60
-40.19
-46.87
-54.37
-63.60
-74.38
-85.65
-96.02
-104.38
-110.38
-114.46
-117.60
-120.99
-125.61
-131.83
-139.09
-145.79
-149.47
-147.45
-137.72
-119.71
-94.60
-65.04
-34.22
-4.91
21.11
43.12
60.94
74.46
83.45
87.80
87.92
84.99
80.75
76.89
74.52
73.74
73.80
73.61
72.26
69.42
65.36
60.66
55.82
50.99
45.88
39.96
32.71
23.95
14.03
3.67
-6.18
-14.75
-21.68
-27.12
-31.62
-35.97
-40.99
-47.40
-55.72
-65.99
-77.59
-88.93
-97.68
-101.24
-97.62
-86.22
-68.22
-46.22
-23.43
-2.67
14.30
26.90
35.35
40.20
41.93
40.98
37.90
33.54
28.95
25.15
22.79
21.94
22.13
22.63
22.80
22.34
21.26
19.74
17.85
15.46
12.22
7.76
2.02
-4.68
-11.62
-17.94
-23.01
-26.64
-29.26
-31.76
-35.30
-40.85
-48.90
-59.05
-69.91
-79.21
-84.42
-83.35
-75.02
-59.96
-40.15
-18.33
2.83
21.45
36.64
48.31
56.72
62.21
64.99
65.43
64.25
62.50
61.38
61.74
63.79
66.94
70.12
72.21
72.54
71.04
68.22
64.76
61.10
57.20
52.62
46.79
39.44
30.81
21.68
13.05
5.74
0.06
-4.29
-8.16
-12.57
-18.49
-26.47
-36.42
-47.42
-57.65
-64.64
-65.90
-59.69
-45.81
-25.77
-2.41
20.97
41.66
58.16
70.28
78.62
84.04
87.22
88.56
88.39
87.20
85.69
84.64
84.67
86.08
88.80
92.51
96.80
101.27
105.45
108.76
110.53
110.24
107.79
103.72
98.98
94.45
90.38
86.18
80.62
72.54
61.60
48.66
35.67
25.10
19.46
20.73
29.90
46.27
66.99
87.07
100.42
101.83
89.14
64.40
33.44
3.75
-18.38
-30.15
-32.92
-31.08
-29.67
-32.26
-39.69
-50.28
-60.98
-68.88
-72.39
-71.74
-68.66
-65.47
-64.00
-65.00
-68.02
-71.97
-75.71
-78.48
-80.07
-80.67
-80.78
-81.01
-81.92
-83.98
-87.42
-92.22
-98.15
-104.80
-111.62
-118.05
-123.43
-127.09
-128.37
-126.95
-122.94
-116.96
-109.86
-102.44
-95.06
-87.64
-79.81
-71.23
-61.85
-52.00
-42.30
-33.45
-26.06
-20.46
-16.61
-14.10
-12.27
-10.40
-8.00
-4.88
-1.26
2.43
5.74
8.43
10.47
11.98
13.05
13.57
13.26
11.78
9.02
5.16
0.75
-3.52
-7.10
-9.80
-11.86
-13.82
-16.28
-19.68
-24.16
-29.57
-35.52
-41.44
-46.60
-50.10
-50.98
-48.44
-42.06
-32.12
-19.64
-6.29
6.01
15.59
21.51
23.84
23.60
22.35
21.51
21.88
23.22
24.47
24.30
21.74
16.74
10.27
3.96
-0.46
-1.83
0.06
4.38
9.42
12.76
11.76
4.28
-10.29
-30.11
-50.78
-66.38
-71.76
-65.01
-49.02
-30.83
-18.81
-18.82
-31.19
-50.28
-66.94
-72.63
-63.07
-39.69
-8.37
23.55
50.14
68.37
77.72
78.82
72.30
58.58
38.62
14.68
-9.65
-30.41
-44.72
-51.91
-53.59
-52.76
-52.40
-54.27
-58.55
-64.15
-69.65
-74.02
-77.02
-79.12
-81.00
-83.16
-85.73
-88.52
-91.23
-93.74
-96.13
-98.74
-102.00
-106.32
-111.73
-117.76
-123.16
-126.12
-124.70
-117.46
-104.11
-85.63
-64.00
-41.52
-20.19
-1.31
14.56
27.22
36.61
42.64
45.39
45.30
43.26
40.54
38.39
37.73
38.79
41.14
43.82
45.77
46.13
44.52
41.03
36.12
30.36
24.25
18.07
11.87
5.50
-1.28
-8.79
-17.42
-27.53
-39.41
-52.81
-66.68
-78.95
-86.88
-87.84
-80.33
-64.68
-43.17
-19.28
3.39
22.27
36.28
45.64
51.23
53.98
54.46
53.01
50.12
46.59
43.59
42.22
43.12
46.10
50.07
53.52
55.04
53.89
50.23
44.90
38.96
33.19
27.81
22.51
16.74
10.04
2.15
-6.99
-17.46
-29.35
-42.49
-56.16
-68.83
-78.26
-82.13
-78.83
-68.17
-51.53
-31.46
-10.83
8.04
23.92
36.53
46.12
52.96
57.07
58.36
56.96
53.53
49.16
45.15
42.43
41.27
41.25
41.49
41.06
39.31
35.97
30.99
24.42
16.35
7.04
-2.93
-12.59
-20.80
-26.63
-29.84
-31.06
-31.55
-32.63
-34.94
-37.92
-39.85
-38.42
-31.61
-18.58
0.08
22.47
46.15
68.91
89.24
106.48
120.41
130.97
138.00
141.43
141.49
138.98
135.18
131.51
129.10
128.50
129.57
131.70
134.03
135.74
136.20
134.98
131.95
127.26
121.32
114.75
108.14
101.91
96.23
91.00
86.00
80.91
75.44
69.36
62.69
55.76
49.41
44.68
42.54
43.35
46.59
50.97
54.94
57.26
57.39
55.35
51.19
44.61
34.79
20.91
2.83
-18.37
-40.27
-59.75
-73.86
-80.75
-80.17
-73.35
-62.54
-50.32
-38.97
-30.14
-24.74
-22.95
-24.35
-28.06
-32.96
-38.00
-42.49
-46.26
-49.70
-53.63
-58.96
-66.44
-76.47
-88.81
-102.44
-115.46
-125.21
-128.91
-124.46
-111.30
-90.76
-65.80
-40.06
-16.68
2.54
17.29
28.27
36.43
42.37
46.25
48.05
48.05
46.99
45.92
45.68
46.59
48.18
49.57
49.85
48.49
45.51
41.22
35.99
30.01
23.33
15.99
8.24
0.49
-6.76
-13.27
-19.06
-24.58
-30.53
-37.70
-46.75
-57.93
-70.77
-83.88
-95.11
-101.93
-102.23
-94.99
-80.71
-61.26
-39.21
-17.03
3.43
21.11
35.44
46.03
52.57
55.08
54.10
50.86
46.92
43.60
41.56
40.52
39.59
37.78
34.52
29.90
24.53
19.13
14.15
9.59
5.04
-0.07
-6.17
-13.36
-21.40
-29.87
-38.39
-46.74
-54.91
-63.05
-71.38
-80.07
-89.03
-97.72
-104.97
-109.05
-107.97
-100.12
-84.93
-63.22
-37.19
-9.74
16.29
38.81
56.70
69.63
77.66
81.04
80.24
76.24
70.64
65.46
62.57
63.00
66.53
71.88
77.23
81.06
82.61
81.94
79.61
76.19
71.86
66.42
59.44
50.61
39.93
27.85
15.15
2.70
-8.79
-19.02
-28.12
-36.64
-45.31
-54.80
-65.57
-77.57
-90.08
-101.70
-110.50
-114.45
-112.08
-102.97
-88.03
-69.15
-48.67
-28.57
-10.21
5.80
19.17
29.69
37.07
41.22
42.47
41.79
40.53
40.03
41.00
43.28
45.91
47.63
47.46
45.17
41.29
36.79
32.47
28.57
24.66
19.96
13.80
6.10
-2.58
-11.27
-18.99
-25.23
-30.08
-34.18
-38.51
-44.06
-51.56
-61.21
-72.49
-84.03
-93.75
-99.32
-98.71
-90.88
-76.19
-56.31
-33.76
-11.14
9.48
26.91
40.79
51.28
58.73
63.51
66.02
66.76
66.43
65.78
65.46
65.79
66.68
67.69
68.23
67.82
66.20
63.43
59.70
55.34
50.61
45.67
40.54
35.19
29.45
23.19
16.33
8.97
1.34
-6.25
-13.48
-20.19
-26.35
-32.11
-37.75
-43.68
-50.39
-58.44
-68.21
-79.52
-91.38
-101.80
-108.18
-108.07
-100.00
-84.20
-62.58
-38.15
-14.05
7.40
25.10
39.05
49.86
58.11
64.09
67.88
69.64
69.85
69.34
68.99
69.41
70.75
72.59
74.27
75.18
74.96
73.61
71.29
68.11
64.02
58.85
52.55
45.25
37.43
29.65
22.35
15.68
9.43
3.22
-3.28
-10.17
-17.32
-24.45
-31.35
-37.93
-44.31
-50.78
-57.77
-65.75
-75.07
-85.62
-96.51
-105.94
-111.53
-111.00
-103.02
-87.86
-67.35
-44.37
-21.86
-1.97
14.32
27.02
36.59
43.43
47.65
49.34
48.76
46.69
44.26
42.64
42.56
44.01
46.24
48.16
48.76
47.59
44.83
41.13
37.20
33.49
29.94
26.16
21.62
16.01
9.48
2.52
-4.19
-10.12
-15.09
-19.33
-23.33
-27.68
-32.88
-39.33
-47.23
-56.50
-66.64
-76.48
-84.24
-87.90
-85.73
-77.04
-62.47
-43.91
-23.93
-4.98
11.29
24.16
33.65
40.12
43.90
45.21
44.37
41.96
38.91
36.27
34.86
34.93
36.10
37.51
38.30
37.87
36.15
33.48
30.36
27.10
23.68
19.70
14.63
8.11
0.24
-8.39
-16.84
-24.20
-29.94
-34.20
-37.69
-41.48
-46.62
-53.82
-63.23
-74.28
-85.63
-95.35
-101.19
-101.22
-94.39
-80.98
-62.63
-41.85
-21.25
-2.84
12.34
24.16
32.94
39.09
42.86
44.52
44.49
43.52
42.54
42.29
43.08
44.59
46.08
46.72
46.02
43.98
40.97
37.50
33.82
29.78
24.94
18.82
11.27
2.64
-6.26
-14.46
-21.19
-26.18
-29.81
-32.95
-36.73
-42.09
-49.50
-58.71
-68.58
-77.29
-82.63
-82.60
-76.09
-63.22
-45.49
-25.29
-5.21
12.68
27.23
38.15
45.74
50.47
52.73
52.92
51.52
49.18
46.67
44.66
43.48
43.04
42.94
42.62
41.71
40.08
37.86
35.22
32.23
28.71
24.30
18.67
11.78
4.01
-3.98
-11.40
-17.71
-22.84
-27.16
-31.45
-36.61
-43.46
-52.32
-62.72
-73.25
-81.71
-85.57
-82.91
-73.07
-57.10
-37.40
-16.99
1.52
16.54
27.69
35.37
40.28
43.03
43.95
43.34
41.60
39.31
37.16
35.71
35.17
35.38
35.90
36.14
35.67
34.18
31.60
27.92
23.23
17.60
11.19
4.23
-2.98
-10.10
-16.90
-23.30
-29.49
-35.91
-43.14
-51.62
-61.21
-70.96
-78.99
-83.01
-81.06
-72.29
-57.45
-38.67
-18.83
-0.54
14.45
25.59
33.14
37.72
39.81
39.71
37.62
33.98
29.62
25.61
23.00
22.43
23.76
26.22
28.58
29.68
28.84
26.02
21.74
16.75
11.67
6.74
1.82
-3.49
-9.61
-16.89
-25.47
-35.27
-45.93
-56.62
-66.03
-72.40
-73.87
-69.07
-57.67
-40.72
-20.50
0.12
18.47
32.79
42.47
47.82
49.68
48.89
46.15
42.02
37.09
32.12
27.89
25.05
23.85
24.02
24.89
25.58
25.30
23.57
20.32
15.78
10.34
4.38
-1.91
-8.47
-15.33
-22.53
-30.16
-38.34
-47.25
-56.96
-67.09
-76.57
-83.57
-85.96
-81.97
-71.00
-54.02
-33.32
-11.87
7.67
23.61
35.45
43.52
48.48
50.82
50.83
48.75
45.04
40.56
36.36
33.42
32.25
32.70
34.01
35.08
34.90
32.90
29.07
23.85
17.92
11.87
6.02
0.32
-5.52
-11.89
-19.13
-27.48
-37.02
-47.65
-58.81
-69.37
-77.54
-81.21
-78.56
-68.83
-52.77
-32.50
-10.93
9.19
25.97
38.72
47.61
53.24
56.14
56.65
55.16
52.26
48.92
46.25
45.21
46.25
49.21
53.41
57.90
61.81
64.52
65.86
66.10
65.91
66.17
67.49
69.75
71.84
71.71
66.91
55.51
36.65
11.01
-19.39
-51.59
-82.15
-107.59
-124.88
-131.98
-128.33
-115.17
-95.45
-73.03
-51.71
-34.17
-21.48
-13.32
-8.57
-6.06
-4.92
-4.69
-5.03
-5.51
-5.60
-4.79
-2.81
0.20
3.76
7.15
9.72
11.03
10.97
9.66
7.38
4.46
1.14
-2.42
-6.13
-10.00
-14.12
-18.70
-24.06
-30.51
-38.02
-45.94
-52.73
-56.28
-54.47
-45.99
-31.05
-11.44
9.98
30.17
46.79
58.74
66.05
69.47
69.95
68.32
65.25
61.33
57.21
53.45
50.49
48.47
47.23
46.41
45.53
44.14
41.88
38.46
33.74
27.78
20.80
13.21
5.41
-2.33
-9.93
-17.53
-25.37
-33.72
-42.87
-53.02
-64.20
-75.93
-87.07
-95.66
-99.37
-96.20
-85.31
-67.56
-45.35
-21.93
-0.39
17.21
30.12
38.62
43.49
45.49
45.12
42.76
38.88
34.23
29.72
26.28
24.50
24.41
25.53
26.95
27.70
26.99
24.42
20.06
14.30
7.69
0.73
-6.17
-12.76
-18.89
-24.54
-29.86
-35.20
-41.19
-48.42
-57.10
-66.59
-75.24
-80.69
-80.53
-73.28
-59.03
-39.54
-17.65
3.58
21.87
36.00
45.90
52.05
55.12
55.70
54.31
51.57
48.26
45.17
42.95
41.81
41.56
41.69
41.66
41.03
39.61
37.32
34.09
29.76
24.14
17.13
8.86
-0.25
-9.59
-18.54
-26.69
-34.00
-40.88
-48.06
-56.36
-66.30
-77.60
-88.99
-98.19
-102.56
-99.90
-89.35
-71.86
-49.97
-26.99
-6.02
10.94
23.23
31.19
35.62
37.28
36.78
34.72
31.90
29.27
27.72
27.69
28.97
30.84
32.40
32.99
32.41
30.91
28.82
26.29
23.11
18.87
13.18
5.97
-2.33
-10.91
-18.82
-25.33
-30.22
-33.84
-37.01
-40.80
-46.15
-53.57
-62.82
-72.76
-81.47
-86.59
-86.05
-78.66
-64.70
-45.87
-24.79
-4.24
13.63
27.70
37.82
44.41
48.00
49.05
47.97
45.34
41.97
38.88
36.94
36.58
37.58
39.21
40.54
40.87
39.96
38.06
35.66
33.10
30.33
26.96
22.43
16.43
9.11
1.09
-6.75
-13.65
-19.25
-23.73
-27.68
-31.88
-37.11
-43.90
-52.47
-62.49
-72.96
-82.16
-87.87
-87.98
-81.16
-67.51
-48.61
-27.12
-5.92
12.72
27.58
38.41
45.53
49.32
50.10
48.26
44.56
40.21
36.64
34.99
35.65
38.03
40.84
42.69
42.64
40.64
37.34
33.69
30.34
27.39
24.32
20.42
15.14
8.44
0.83
-6.89
-13.97
-20.00
-24.97
-29.29
-33.58
-38.54
-44.74
-52.46
-61.48
-70.78
-78.61
-82.79
-81.30
-73.06
-58.39
-39.07
-17.81
2.61
20.01
33.31
42.32
47.44
49.29
48.49
45.74
41.96
38.19
35.43
34.30
34.80
36.31
37.90
38.76
38.52
37.33
35.67
33.93
32.15
29.93
26.61
21.66
14.94
6.86
-1.83
-10.26
-17.84
-24.35
-30.11
-35.75
-42.09
-49.77
-58.96
-69.06
-78.61
-85.53
-87.60
-83.22
-71.99
-54.98
-34.42
-13.06
6.62
22.97
35.33
43.78
48.76
50.76
50.25
47.75
44.04
40.04
36.74
34.80
34.40
35.12
36.19
36.84
36.60
35.41
33.51
31.13
28.22
24.42
19.18
12.23
3.74
-5.58
-14.74
-22.85
-29.49
-34.80
-39.41
-44.19
-50.04
-57.54
-66.74
-76.88
-86.34
-92.80
-93.84
-87.78
-74.32
-54.87
-32.10
-9.12
11.45
28.07
40.30
48.42
52.95
54.34
53.03
49.67
45.24
40.97
37.96
36.83
37.47
39.11
40.74
41.45
40.85
39.08
36.57
33.79
30.87
27.53
23.25
17.56
10.36
2.07
-6.51
-14.50
-21.34
-27.04
-32.15
-37.52
-44.03
-52.23
-62.11
-72.97
-83.35
-91.23
-94.44
-91.28
-81.15
-64.82
-44.35
-22.49
-1.89
15.53
28.86
38.02
43.46
45.78
45.59
43.55
40.47
37.22
34.69
33.49
33.79
35.27
37.20
38.76
39.31
38.56
36.60
33.63
29.83
25.18
19.54
12.88
5.42
-2.33
-9.71
-16.25
-21.90
-27.01
-32.29
-38.45
-46.00
-55.04
-65.00
-74.59
-81.85
-84.58
-80.99
-70.43
-53.74
-33.17
-11.68
8.01
24.13
36.06
44.02
48.56
50.16
49.17
46.11
41.74
37.17
33.52
31.54
31.28
32.22
33.49
34.31
34.28
33.35
31.67
29.26
25.94
21.38
15.38
8.11
0.06
-8.00
-15.45
-21.99
-27.76
-33.27
-39.24
-46.38
-55.18
-65.60
-76.74
-86.78
-93.27
-93.80
-86.88
-72.62
-52.81
-30.37
-8.34
10.91
26.23
37.46
45.01
49.37
50.96
50.21
47.87
44.99
42.67
41.72
42.31
43.93
45.71
46.79
46.69
45.48
43.54
41.25
38.74
35.71
31.65
26.08
18.86
10.29
1.12
-7.80
-15.76
-22.41
-27.94
-32.99
-38.44
-45.21
-53.91
-64.48
-75.93
-86.29
-92.91
-93.26
-85.74
-70.39
-48.96
-24.47
-0.17
21.31
38.54
51.27
60.01
65.49
68.35
69.07
68.15
66.14
63.60
60.84
57.70
53.67
48.04
40.47
31.29
21.69
13.41
8.12
6.79
9.21
14.01
19.10
22.40
22.55
19.23
13.12
5.39
-2.79
-10.70
-18.14
-25.39
-32.94
-41.35
-51.10
-62.33
-74.57
-86.44
-95.69
-99.71
-96.37
-84.92
-66.42
-43.58
-19.82
1.71
19.06
31.63
39.86
44.62
46.69
46.60
44.80
41.98
39.04
37.02
36.58
37.79
40.04
42.37
43.86
44.06
43.03
41.11
38.57
35.38
31.24
25.78
18.92
11.02
2.75
-5.11
-12.03
-17.95
-23.23
-28.55
-34.72
-42.42
-51.99
-63.14
-74.77
-84.96
-91.28
-91.49
-84.28
-69.87
-50.06
-27.66
-5.59
13.93
29.80
41.84
50.35
55.66
58.01
57.75
55.60
52.66
50.18
49.12
49.78
51.74
54.13
56.04
56.86
56.46
55.08
53.11
50.89
48.52
45.88
42.76
39.03
34.80
30.50
26.69
23.91
22.35
21.72
21.30
20.21
17.81
14.09
9.99
7.33
8.57
16.31
32.76
59.02
94.42
135.89
177.84
212.94
233.83
235.36
216.48
180.79
135.60
89.78
51.49
26.52
17.71
24.82
44.62
71.21
96.82
113.66
116.30
103.66
79.55
51.23
26.50
10.53
4.13
3.90
4.28
0.21
-10.78
-27.96
-48.09
-67.13
-81.86
-91.14
-96.09
-99.42
-104.00
-111.53
-121.82
-132.90
-141.98
-146.47
-144.92
-137.33
-125.08
-110.50
-96.30
-85.03
-78.73
-78.61
-84.86
-96.61
-112.02
-128.56
-143.50
-154.40
-159.60
-158.48
-151.70
-141.01
-128.85
-117.68
-109.22
-104.05
-101.68
-100.99
-100.90
-100.78
-100.57
-100.52
-100.83
-101.48
-102.37
-103.55
-105.41
-108.56
-113.22
-118.60
-122.49
-121.63
-112.75
-93.90
-65.60
-30.94
5.29
38.26
64.72
83.89
97.20
107.19
116.13
125.22
134.37
142.56
148.30
149.86
145.62
134.55
116.95
95.05
72.86
54.98
44.77
42.60
45.39
47.81
44.60
33.12
14.56
-6.62
-24.88
-36.03
-38.98
-35.84
-30.67
-27.56
-29.11
-35.94
-47.07
-60.95
-76.19
-91.72
-106.49
-119.07
-127.76
-130.97
-127.87
-118.88
-105.70
-90.83
-76.79
-65.40
-57.35
-52.10
-48.26
-44.21
-38.82
-31.91
-24.21
-17.00
-11.43
-7.97
-6.33
-5.71
-5.40
-5.19
-5.47
-6.98
-10.31
-15.53
-22.05
-28.90
-35.14
-40.24
-44.35
-48.15
-52.64
-58.77
-67.08
-77.26
-88.02
-97.08
-101.72
-99.57
-89.43
-71.75
-48.60
-22.99
2.05
24.28
42.59
56.75
67.10
74.06
78.04
79.56
79.36
78.37
77.55
77.58
78.69
80.58
82.64
84.17
84.62
83.71
81.37
77.65
72.61
66.38
59.15
51.26
43.14
35.24
27.86
21.05
14.46
7.51
-0.55
-10.33
-21.89
-34.45
-46.27
-54.94
-57.96
-53.58
-41.43
-22.78
-0.23
23.00
44.04
60.93
72.90
80.15
83.49
83.86
82.18
79.28
75.95
72.94
70.83
69.87
69.87
70.28
70.42
69.76
68.05
65.30
61.54
56.70
50.56
42.98
34.12
24.49
14.86
5.88
-2.15
-9.44
-16.52
-24.10
-32.78
-42.75
-53.67
-64.43
-73.17
-77.62
-75.74
-66.49
-50.37
-29.41
-6.64
14.97
33.24
47.20
56.88
62.82
65.67
65.95
64.21
61.22
57.89
55.17
53.68
53.53
54.35
55.47
56.19
56.04
54.72
52.11
48.16
42.83
36.12
28.25
19.59
10.62
1.84
-6.43
-14.07
-21.26
-28.38
-35.96
-44.51
-54.20
-64.58
-74.35
-81.46
-83.64
-79.13
-67.38
-49.46
-27.77
-5.31
15.21
31.99
44.37
52.57
57.20
58.90
58.25
55.81
52.28
48.48
45.25
43.18
42.46
42.81
43.62
44.15
43.76
42.01
38.76
34.11
28.31
21.69
14.59
7.35
0.23
-6.47
-12.60
-18.15
-23.45
-29.15
-36.06
-44.71
-54.93
-65.43
-73.94
-77.85
-75.06
-64.91
-48.50
-28.40
-7.78
10.64
25.21
35.62
42.36
46.24
47.87
47.52
45.38
41.86
37.70
33.89
31.33
30.43
30.98
32.19
33.03
32.54
30.24
26.16
20.76
14.71
8.63
2.87
-2.54
-7.81
-13.33
-19.48
-26.60
-34.93
-44.44
-54.61
-64.25
-71.51
-74.30
-70.96
-60.97
-45.32
-26.26
-6.61
11.11
25.36
35.62
42.10
45.22
45.37
42.91
38.43
32.94
27.75
24.13
22.83
23.76
25.98
28.14
28.98
27.79
24.65
20.17
15.15
10.18
5.44
0.71
-4.41
-10.30
-17.19
-25.19
-34.28
-44.22
-54.32
-63.23
-69.15
-70.17
-64.97
-53.40
-36.72
-17.29
2.16
19.31
32.74
42.04
47.50
49.72
49.31
46.88
43.07
38.63
34.39
31.06
29.08
28.43
28.73
29.35
29.59
28.85
26.77
23.21
18.34
12.50
6.12
-0.44
-6.95
-13.40
-19.93
-26.76
-34.12
-42.30
-51.44
-61.36
-71.29
-79.71
-84.55
-83.79
-76.22
-62.02
-42.88
-21.53
-0.86
16.89
30.56
40.03
45.75
48.42
48.63
46.97
44.11
40.82
37.87
35.85
34.97
35.06
35.71
36.46
36.93
36.89
36.12
34.40
31.47
27.13
21.39
14.55
7.10
-0.34
-7.31
-13.60
-19.36
-25.05
-31.32
-38.85
-47.98
-58.37
-68.78
-77.12
-80.96
-78.29
-68.37
-52.07
-31.75
-10.42
9.23
25.49
37.86
46.64
52.47
55.79
56.87
55.97
53.63
50.78
48.46
47.57
48.43
50.69
53.44
55.67
56.62
56.08
54.34
52.00
49.60
47.32
44.95
41.97
37.89
32.52
26.13
19.42
13.18
8.04
4.16
1.22
-1.41
-4.49
-8.68
-14.53
-22.36
-32.17
-43.46
-54.97
-64.77
-70.69
-71.06
-65.42
-54.84
-41.64
-28.61
-18.18
-11.91
-10.42
-13.79
-21.88
-34.41
-50.72
-69.38
-88.01
-103.62
-113.49
-116.01
-111.26
-100.98
-87.85
-74.61
-63.31
-55.11
-50.34
-48.88
-50.24
-53.43
-56.78
-58.06
-54.95
-45.90
-30.74
-10.84
11.40
33.40
53.16
69.56
82.15
90.78
95.30
95.68
92.38
86.63
80.36
75.75
74.35
76.60
81.69
87.90
93.45
97.07
98.35
97.51
95.00
91.00
85.34
77.74
68.27
57.62
47.15
38.39
32.51
29.85
29.80
31.17
32.65
33.26
32.53
30.44
27.24
23.15
18.32
12.85
6.82
0.45
-5.92
-11.86
-16.99
-21.24
-24.80
-28.21
-32.20
-37.42
-44.26
-52.65
-61.97
-71.02
-78.16
-81.63
-80.01
-72.75
-60.37
-44.34
-26.66
-9.20
6.60
19.86
30.06
36.82
39.86
39.17
35.26
29.17
22.29
15.91
10.79
6.93
3.64
-0.12
-5.22
-12.06
-20.35
-29.20
-37.42
-43.92
-47.98
-49.43
-48.56
-45.97
-42.40
-38.51
-34.78
-31.42
-28.39
-25.52
-22.76
-20.34
-18.77
-18.67
-20.50
-24.26
-29.44
-35.03
-39.61
-41.60
-39.51
-32.30
-19.75
-2.65
17.19
37.45
55.93
71.18
82.76
91.02
96.66
100.27
102.23
102.79
102.22
100.97
99.58
98.45
97.78
97.62
97.93
98.70
99.79
100.74
100.72
98.56
93.09
83.56
69.86
52.53
32.56
11.14
-10.56
-31.37
-50.26
-66.39
-79.38
-89.40
-97.27
-104.27
-111.88
-121.38
-133.57
-148.48
-165.26
-182.26
-197.27
-208.15
-213.39
-212.61
-206.68
-197.45
-186.87
-176.22
-165.44
-153.22
-137.67
-117.30
-91.88
-62.73
-32.21
-2.87
23.44
45.89
64.61
80.12
92.83
102.93
110.41
115.27
117.70
118.03
116.72
114.31
111.33
108.28
105.38
102.56
99.45
95.52
90.30
83.48
74.88
64.37
51.78
37.08
20.67
3.62
-12.37
-25.25
-33.16
-34.99
-30.73
-21.49
-9.20
3.82
15.49
24.33
29.68
31.60
30.63
27.44
22.66
16.81
10.40
4.00
-1.71
-6.08
-8.73
-9.63
-9.12
-7.85
-6.48
-5.63
-5.77
-7.19
-10.00
-14.17
-19.46
-25.41
-31.42
-36.80
-41.00
-43.78
-45.35
-46.35
-47.76
-50.63
-55.73
-63.17
-72.18
-81.14
-87.89
-90.43
-87.53
-79.16
-66.59
-51.94
-37.51
-25.21
-16.17
-10.70
-8.55
-9.14
-11.77
-15.60
-19.75
-23.34
-25.74
-26.68
-26.27
-24.87
-22.88
-20.58
-18.21
-16.08
-14.62
-14.38
-15.77
-18.83
-23.11
-27.88
-32.42
-36.30
-39.48
-42.19
-44.69
-47.16
-49.61
-51.88
-53.59
-54.05
-52.28
-47.15
-37.86
-24.32
-7.42
11.12
29.18
44.77
56.45
63.43
65.52
62.95
56.35
46.83
36.00
25.83
18.21
14.47
14.91
18.75
24.44
30.26
34.90
37.82
39.08
39.06
38.10
36.41
34.04
31.08
27.65
23.90
19.82
15.29
10.09
4.01
-3.07
-11.26
-20.68
-31.28
-42.58
-53.35
-61.65
-65.27
-62.49
-52.74
-37.01
-17.56
2.80
21.45
36.64
47.56
54.24
57.08
56.68
53.77
49.30
44.50
40.75
39.20
40.33
43.74
48.12
51.76
53.08
51.24
46.35
39.28
31.30
23.45
16.21
9.45
2.69
-4.50
-12.14
-19.76
-26.55
-31.76
-35.03
-36.60
-37.24
-38.08
-40.25
-44.56
-51.15
-59.31
-67.44
-73.37
-75.01
-70.98
-61.24
-47.15
-30.96
-15.18
-1.73
8.46
15.36
19.57
21.90
23.01
23.42
23.54
23.70
24.19
25.18
26.69
28.59
30.80
33.42
36.83
41.50
47.73
55.21
62.90
69.11
72.01
70.29
63.65
52.96
39.92
26.55
14.52
4.73
-2.74
-8.56
-13.85
-19.94
-27.96
-38.55
-51.36
-65.02
-77.24
-85.50
-87.81
-83.52
-73.48
-59.76
-44.84
-30.84
-18.99
-9.66
-2.67
2.31
5.58
7.43
8.40
9.26
10.97
14.28
19.43
26.09
33.39
40.31
46.00
49.97
52.06
52.27
50.61
47.09
41.86
35.36
28.35
21.67
15.86
10.87
6.10
0.64
-6.32
-15.09
-25.34
-36.21
-46.44
-54.53
-58.99
-58.50
-52.29
-40.44
-23.99
-4.89
14.57
32.34
47.02
58.07
65.58
70.00
71.76
71.20
68.66
64.60
59.65
54.55
49.96
46.28
43.61
41.78
40.46
39.23
37.68
35.38
31.91
26.98
20.50
12.68
4.02
-4.86
-13.43
-21.36
-28.63
-35.42
-42.06
-48.93
-56.30
-64.03
-71.38
-76.99
-79.10
-76.16
-67.43
-53.42
-35.85
-17.19
0.10
14.27
24.51
30.91
34.06
34.68
33.43
30.94
27.88
24.93
22.70
21.56
21.49
22.09
22.74
22.89
22.18
20.60
18.29
15.46
12.22
8.53
4.32
-0.44
-5.69
-11.17
-16.55
-21.49
-25.86
-29.80
-33.78
-38.41
-44.10
-50.67
-57.17
-61.95
-63.16
-59.41
-50.28
-36.54
-19.96
-2.74
13.05
25.92
35.15
40.70
43.08
43.06
41.49
39.14
36.64
34.48
33.04
32.56
33.10
34.49
36.26
37.81
38.41
37.46
34.62
29.83
23.34
15.62
7.18
-1.46
-9.89
-17.86
-25.31
-32.37
-39.32
-46.57
-54.44
-62.98
-71.71
-79.47
-84.54
-85.12
-79.93
-68.77
-52.70
-33.83
-14.65
2.60
16.40
26.03
31.48
33.20
31.90
28.48
23.99
19.46
15.78
13.52
12.84
13.53
15.13
17.07
18.79
19.86
19.99
19.05
17.07
14.19
10.67
6.74
2.61
-1.56
-5.69
-9.78
-13.97
-18.51
-23.73
-29.83
-36.64
-43.41
-48.80
-51.17
-49.10
-41.94
-30.12
-15.16
0.82
15.65
27.70
36.07
40.63
41.73
40.01
36.24
31.28
26.05
21.43
18.09
16.32
15.98
16.63
17.72
18.85
19.84
20.72
21.52
22.08
22.09
21.18
19.15
16.13
12.58
9.13
6.30
4.31
2.93
1.58
-0.54
-4.08
-9.36
-16.07
-23.27
-29.54
-33.34
-33.48
-29.43
-21.54
-10.99
0.52
11.22
19.72
25.41
28.46
29.64
29.84
29.63
29.14
28.10
26.21
23.37
19.86
16.16
12.83
10.32
8.86
8.49
9.03
10.06
10.94
10.85
8.99
4.75
-2.05
-11.16
-21.81
-32.88
-43.09
-51.27
-56.72
-59.46
-60.28
-60.52
-61.59
-64.51
-69.43
-75.56
-81.33
-84.83
-84.40
-79.13
-69.08
-55.27
-39.33
-22.94
-7.41
6.52
18.68
29.13
37.91
44.92
49.95
52.94
54.09
53.98
53.35
52.90
52.99
53.54
54.16
54.28
53.47
51.47
48.13
43.33
36.84
28.49
18.32
6.82
-5.05
-16.12
-25.31
-32.13
-36.75
-39.95
-42.76
-46.09
-50.45
-55.86
-61.87
-67.64
-71.95
-73.35
-70.35
-61.97
-48.13
-29.96
-9.66
10.13
27.06
39.77
48.02
52.45
54.07
53.77
52.15
49.64
46.69
43.89
41.87
40.98
41.17
41.91
42.41
41.90
39.89
36.30
31.38
25.46
18.82
11.51
3.52
-5.11
-14.15
-23.10
-31.32
-38.32
-43.96
-48.52
-52.71
-57.43
-63.47
-71.16
-80.18
-89.43
-97.15
-101.36
-100.33
-93.23
-80.42
-63.41
-44.42
-25.69
-8.94
4.90
15.64
23.46
28.68
31.56
32.44
31.82
30.48
29.31
29.05
29.98
31.88
34.05
35.71
36.30
35.71
34.29
32.66
31.28
30.27
29.29
27.66
24.76
20.29
14.45
7.88
1.36
-4.56
-9.70
-14.39
-19.29
-25.15
-32.68
-42.21
-53.49
-65.51
-76.48
-84.11
-86.23
-81.52
-69.98
-53.09
-33.23
-13.02
5.47
21.09
33.58
43.17
50.24
55.04
57.75
58.60
58.08
56.95
56.08
56.18
57.49
59.68
61.90
63.24
63.03
61.15
58.04
54.41
50.87
47.60
44.38
40.62
35.83
29.78
22.71
15.12
7.64
0.72
-5.51
-11.24
-16.91
-23.00
-29.96
-38.09
-47.52
-58.12
-69.26
-79.70
-87.64
-91.06
-88.36
-78.96
-63.69
-44.60
-24.32
-5.27
11.01
24.06
34.17
41.92
47.69
51.59
53.62
53.93
53.05
51.76
50.85
50.82
51.69
53.02
54.18
54.52
53.66
51.53
48.34
44.48
40.39
36.33
32.34
28.20
23.51
17.91
11.31
3.96
-3.60
-10.73
-17.00
-22.34
-27.06
-31.74
-37.03
-43.43
-51.27
-60.53
-70.73
-80.77
-88.96
-93.31
-92.04
-84.24
-70.30
-51.85
-31.34
-11.25
6.57
21.22
32.58
40.96
46.72
50.09
51.30
50.75
49.16
47.46
46.50
46.70
47.90
49.42
50.36
50.06
48.30
45.43
42.02
38.61
35.37
32.05
28.17
23.23
17.08
9.99
2.61
-4.33
-10.31
-15.19
-19.28
-23.19
-27.67
-33.30
-40.45
-49.09
-58.73
-68.29
-76.15
-80.40
-79.32
-72.00
-58.72
-41.03
-21.35
-2.16
14.60
27.94
37.79
44.58
48.85
51.02
51.36
50.23
48.17
45.95
44.30
43.73
44.30
45.63
47.07
47.93
47.75
46.35
43.81
40.37
36.27
31.68
26.70
21.31
15.50
9.22
2.54
-4.37
-11.22
-17.66
-23.41
-28.40
-32.80
-36.96
-41.38
-46.55
-52.89
-60.69
-69.90
-79.95
-89.57
-96.86
-99.71
-96.37
-86.20
-69.98
-49.77
-28.33
-8.21
8.90
22.41
32.63
40.21
45.72
49.50
51.69
52.48
52.26
51.61
51.12
51.12
51.60
52.29
52.79
52.87
52.48
51.71
50.68
49.32
47.36
44.42
40.23
34.75
28.36
21.69
15.35
9.70
4.67
-0.13
-5.15
-10.63
-16.46
-22.26
-27.61
-32.30
-36.46
-40.53
-45.11
-50.80
-58.01
-66.78
-76.55
-86.01
-93.18
-95.84
-92.19
-81.60
-64.93
-44.35
-22.67
-2.43
14.80
28.62
39.56
48.57
56.50
63.87
70.91
77.79
84.72
91.99
99.76
107.88
115.84
122.83
128.15
131.45
132.94
133.12
132.39
130.70
127.46
121.77
112.95
100.93
86.41
70.55
54.63
39.60
25.97
13.79
2.87
-7.13
-16.61
-26.04
-35.86
-46.46
-57.91
-69.99
-82.16
-93.76
-104.07
-112.41
-118.07
-120.28
-118.25
-111.36
-99.50
-83.29
-64.17
-44.20
-25.60
-10.19
0.94
7.66
10.48
10.32
8.20
5.05
1.64
-1.32
-3.32
-4.04
-3.50
-2.02
-0.14
1.53
2.54
2.67
1.98
0.77
-0.65
-2.10
-3.64
-5.60
-8.38
-12.28
-17.29
-23.03
-28.96
-34.49
-39.34
-43.51
-47.42
-51.66
-56.85
-63.39
-71.18
-79.46
-86.82
-91.34
-91.23
-85.38
-73.83
-57.82
-39.52
-21.29
-5.13
7.80
17.18
23.28
26.61
27.75
27.24
25.65
23.73
22.21
21.69
22.36
23.95
25.81
27.22
27.73
27.26
26.10
24.57
22.77
20.47
17.24
12.69
6.79
-0.08
-7.23
-13.95
-19.79
-24.71
-29.08
-33.56
-38.84
-45.46
-53.47
-62.32
-70.83
-77.33
-80.09
-77.76
-69.88
-57.05
-40.84
-23.29
-6.45
8.15
19.64
27.80
32.84
35.20
35.42
34.11
31.99
29.79
28.21
27.70
28.34
29.82
31.46
32.55
32.54
31.30
29.07
26.31
23.37
20.28
16.75
12.37
6.92
0.60
-6.00
-12.15
-17.31
-21.43
-24.98
-28.85
-33.94
-40.87
-49.58
-59.20
-68.04
-74.03
-75.18
-70.29
-59.37
-43.66
-25.32
-6.79
9.87
23.40
33.33
39.85
43.42
44.56
43.82
41.80
39.14
36.51
34.38
32.99
32.19
31.60
30.78
29.45
27.59
25.35
22.95
20.43
17.61
14.11
9.57
3.85
-2.91
-10.20
-17.36
-23.81
-29.31
-34.07
-38.70
-44.04
-50.77
-59.01
-68.04
-76.31
-81.70
-82.19
-76.50
-64.63
-47.91
-28.64
-9.35
7.84
21.64
31.62
37.94
41.08
41.65
40.34
37.97
35.49
33.77
33.41
34.55
36.88
39.75
42.46
44.45
45.46
45.43
44.37
42.27
39.00
34.44
28.61
21.81
14.62
7.72
1.64
-3.45
-7.86
-12.27
-17.45
-23.93
-31.72
-40.00
-47.26
-51.53
-50.97
-44.42
-31.93
-14.79
4.78
24.32
41.72
55.74
65.97
72.67
76.32
77.48
76.66
74.41
71.43
68.50
66.27
65.08
64.83
64.96
64.70
63.37
60.56
56.20
50.45
43.50
35.42
26.16
15.68
4.14
-8.06
-20.31
-32.03
-42.92
-52.95
-62.37
-71.50
-80.49
-89.18
-97.00
-102.91
-105.51
-103.46
-95.91
-83.10
-66.58
-48.95
-33.21
-21.69
-15.46
-14.04
-15.87
-19.02
-21.86
-23.38
-23.20
-21.31
-17.84
-13.03
-7.24
-1.05
4.76
9.30
11.82
11.94
9.74
5.75
0.73
-4.70
-10.27
-16.08
-22.49
-29.77
-37.90
-46.56
-55.22
-63.45
-71.13
-78.52
-86.10
-94.44
-103.95
-114.69
-126.18
-137.29
-146.21
-150.73
-148.76
-138.96
-121.29
-97.15
-69.09
-40.09
-12.72
11.38
31.60
48.11
61.44
72.16
80.89
88.33
95.37
102.88
111.35
120.59
129.65
137.13
141.67
142.52
139.77
134.15
126.64
118.04
108.70
98.58
87.45
75.13
61.70
47.47
32.94
18.67
5.14
-7.36
-18.81
-29.43
-39.62
-49.85
-60.47
-71.45
-82.12
-91.13
-96.61
-96.74
-90.41
-77.76
-60.32
-40.59
-21.29
-4.54
8.50
17.65
23.32
26.10
26.58
25.38
23.27
21.18
20.03
20.46
22.57
25.86
29.38
32.03
32.93
31.70
28.61
24.40
20.01
16.19
13.15
10.51
7.57
3.64
-1.52
-7.60
-13.82
-19.32
-23.51
-26.31
-28.19
-29.98
-32.61
-36.90
-43.26
-51.49
-60.53
-68.51
-73.00
-71.63
-62.91
-46.79
-24.81
0.41
25.92
49.42
69.62
86.22
99.43
109.41
116.04
119.10
118.67
115.49
111.01
107.02
105.13
106.33
110.74
117.74
126.18
134.71
141.86
146.33
147.06
143.48
135.60
124.01
109.45
92.50
73.35
51.88
28.21
3.04
-22.26
-45.98
-66.79
-84.30
-99.06
-112.32
-125.32
-138.88
-153.10
-167.55
-181.34
-193.17
-201.23
-203.34
-197.41
-182.30
-158.48
-128.28
-95.31
-63.37
-35.36
-12.64
4.92
18.30
28.59
36.55
42.52
46.72
49.55
51.65
53.70
56.14
58.97
61.75
63.87
64.85
64.57
63.30
61.47
59.37
56.87
53.44
48.43
41.35
32.27
21.80
10.91
0.58
-8.47
-15.99
-22.11
-27.31
-32.24
-37.64
-44.25
-52.62
-62.80
-74.10
-84.97
-93.29
-96.90
-94.35
-85.40
-71.21
-53.95
-36.18
-20.05
-6.90
2.85
9.35
13.00
14.19
13.30
10.85
7.64
4.68
2.90
2.89
4.63
7.59
10.92
13.85
15.92
17.01
17.20
16.55
14.97
12.20
7.94
2.14
-4.92
-12.60
-20.02
-26.45
-31.52
-35.41
-38.77
-42.55
-47.61
-54.43
-62.80
-71.71
-79.37
-83.68
-82.67
-75.23
-61.50
-42.94
-21.92
-1.03
17.52
32.35
42.86
49.05
51.27
50.08
46.27
40.95
35.40
30.84
28.17
27.64
28.87
31.06
33.28
34.84
35.39
34.96
33.73
31.79
29.04
25.23
20.12
13.72
6.42
-1.10
-8.08
-13.96
-18.58
-22.25
-25.71
-29.83
-35.44
-42.90
-51.93
-61.43
-69.52
-73.98
-72.87
-65.17
-51.23
-32.72
-12.21
7.63
24.66
37.67
46.29
50.76
51.59
49.48
45.29
40.15
35.29
31.86
30.48
31.12
33.11
35.45
37.25
38.03
37.79
36.82
35.42
33.63
31.21
27.73
22.85
16.58
9.34
1.83
-5.18
-11.15
-16.02
-20.16
-24.32
-29.35
-36.00
-44.55
-54.57
-64.85
-73.42
-78.03
-76.76
-68.72
-54.46
-35.85
-15.59
3.64
19.84
32.04
40.16
44.62
45.99
44.79
41.61
37.22
32.67
29.10
27.37
27.77
29.83
32.50
34.59
35.26
34.31
32.14
29.44
26.70
23.91
20.59
16.06
9.92
2.33
-5.97
-13.97
-20.86
-26.36
-30.76
-34.81
-39.34
-45.02
-52.12
-60.41
-69.06
-76.63
-81.30
-81.22
-75.13
-62.89
-45.68
-25.77
-5.82
11.80
25.64
35.26
41.01
43.50
43.36
41.15
37.51
33.32
29.69
27.60
27.59
29.47
32.31
34.91
36.24
35.90
34.12
31.58
28.94
26.46
23.92
20.74
16.32
10.36
3.03
-5.05
-13.03
-20.13
-25.94
-30.64
-34.89
-39.68
-46.01
-54.46
-64.87
-76.17
-86.37
-92.97
-93.58
-86.66
-72.11
-51.44
-27.38
-3.12
18.59
36.06
48.70
56.80
60.97
61.85
60.02
56.21
51.39
46.76
43.48
42.22
42.96
44.98
47.16
48.40
48.00
45.85
42.33
38.04
33.49
28.94
24.33
19.49
14.27
8.77
3.27
-1.83
-6.24
-9.99
-13.37
-16.94
-21.36
-27.18
-34.78
-44.19
-54.97
-66.02
-75.66
-81.80
-82.47
-76.52
-64.04
-46.55
-26.57
-6.84
10.45
24.16
34.18
41.02
45.29
47.39
47.51
45.89
43.13
40.20
38.19
37.94
39.63
42.68
46.00
48.44
49.20
48.15
45.70
42.55
39.32
36.22
33.01
29.21
24.31
18.18
11.11
3.79
-2.94
-8.50
-12.73
-16.04
-19.16
-22.92
-27.98
-34.65
-42.90
-52.32
-62.04
-70.68
-76.48
-77.57
-72.60
-61.28
-44.66
-24.95
-4.89
13.06
27.31
37.37
43.61
46.74
47.51
46.50
44.24
41.32
38.51
36.62
36.25
37.61
40.32
43.58
46.36
47.80
47.45
45.40
42.13
38.27
34.34
30.51
26.67
22.56
17.94
12.73
7.08
1.26
-4.44
-9.79
-14.71
-19.29
-23.70
-28.18
-33.01
-38.46
-44.83
-52.31
-60.82
-69.79
-77.98
-83.61
-84.83
-80.37
-70.03
-54.98
-37.33
-19.53
-3.55
9.52
19.50
26.77
31.80
34.91
36.29
36.20
35.16
33.95
33.41
34.08
35.97
38.56
40.99
42.47
42.60
41.49
39.62
37.58
35.69
33.89
31.73
28.68
24.33
18.73
12.32
5.84
-0.03
-4.95
-9.00
-12.65
-16.53
-21.25
-27.24
-34.69
-43.52
-53.14
-62.38
-69.45
-72.34
-69.45
-60.22
-45.54
-27.53
-8.86
8.10
21.87
31.99
38.77
42.72
44.26
43.71
41.44
38.09
34.63
32.09
31.22
32.20
34.59
37.47
39.80
40.79
40.09
37.90
34.74
31.19
27.72
24.45
21.14
17.35
12.64
6.83
0.14
-6.88
-13.53
-19.28
-23.98
-27.97
-31.90
-36.51
-42.40
-49.90
-58.93
-68.86
-78.44
-85.82
-88.90
-85.91
-76.11
-60.19
-40.21
-18.99
0.73
17.10
29.40
37.88
43.22
46.06
46.79
45.69
43.22
40.17
37.53
36.16
36.44
38.07
40.22
41.89
42.34
41.36
39.22
36.49
33.61
30.72
27.61
23.84
18.99
12.87
5.73
-1.87
-9.15
-15.45
-20.49
-24.54
-28.33
-32.81
-38.81
-46.74
-56.44
-67.07
-77.24
-85.18
-89.05
-87.38
-79.46
-65.71
-47.63
-27.46
-7.57
10.09
24.43
35.14
42.42
46.68
48.35
47.95
46.26
44.31
43.28
44.03
46.85
51.24
56.17
60.43
63.20
64.29
64.17
63.68
63.62
64.36
65.69
66.89
67.12
65.73
62.61
58.19
53.28
48.76
45.21
42.78
41.18
39.80
37.95
35.06
30.93
25.99
21.40
18.96
20.74
28.35
42.37
62.00
85.42
110.33
134.76
157.41
177.50
194.31
206.79
213.52
213.17
205.18
190.22
170.15
147.51
124.78
103.78
85.49
70.07
57.14
45.99
35.83
25.94
15.86
5.52
-4.74
-14.41
-23.11
-30.77
-37.64
-44.06
-50.20
-56.07
-61.79
-68.02
-76.22
-88.52
-107.08
-133.14
-166.14
-203.16
-238.87
-266.19
-277.64
-267.36
-233.10
-177.67
-109.02
-38.68
21.29
61.51
77.69
71.12
47.38
14.00
-21.95
-55.23
-82.64
-102.66
-114.83
-119.55
-118.07
-112.50
-105.46
-99.44
-95.97
-95.22
-96.11
-97.02
-96.60
-94.41
-91.07
-87.82
-85.85
-85.78
-87.26
-89.25
-90.54
-90.26
-88.40
-85.75
-83.61
-83.34
-85.79
-91.10
-98.60
-106.94
-114.39
-119.05
-119.29
-113.99
-102.91
-86.77
-67.18
-46.20
-25.87
-7.78
7.09
18.29
25.78
29.77
30.72
29.39
26.85
24.27
22.67
22.59
23.99
26.36
28.96
31.13
32.39
32.45
31.11
28.22
23.67
17.49
9.95
1.58
-6.97
-15.02
-22.06
-27.86
-32.50
-36.42
-40.30
-44.93
-51.02
-58.85
-68.01
-77.22
-84.53
-87.68
-84.92
-75.58
-60.41
-41.40
-21.13
-1.97
14.55
27.83
38.00
45.44
50.48
53.37
54.47
54.43
54.20
54.71
56.63
60.04
64.47
69.16
73.40
76.76
79.23
81.05
82.53
83.81
84.82
85.39
85.37
84.75
83.79
82.87
82.44
82.71
83.65
84.85
85.73
85.71
84.42
81.89
78.64
75.65
74.13
75.06
78.92
85.31
93.01
100.22
105.06
105.99
102.13
93.32
79.98
62.89
42.97
21.19
-1.37
-23.50
-43.86
-61.12
-74.11
-82.12
-85.06
-83.49
-78.50
-71.39
-63.39
-55.39
-48.01
-41.61
-36.50
-32.94
-31.21
-31.43
-33.48
-36.96
-41.35
-46.10
-50.92
-55.73
-60.75
-66.32
-72.74
-80.26
-88.85
-98.10
-107.10
-114.35
-118.05
-116.53
-108.90
-95.42
-77.62
-57.78
-38.26
-20.83
-6.33
5.14
13.82
19.95
23.61
24.90
24.22
22.48
20.96
20.95
23.20
27.63
33.31
38.82
42.80
44.46
43.81
41.48
38.30
34.86
31.30
27.38
22.69
17.04
10.57
3.70
-3.03
-9.19
-14.64
-19.48
-24.08
-28.93
-34.63
-41.79
-50.88
-61.93
-74.22
-86.14
-95.36
-99.39
-96.42
-86.04
-69.46
-49.20
-28.19
-8.94
7.08
19.44
28.41
34.45
37.93
39.23
38.93
38.01
37.54
38.40
40.83
44.34
47.87
50.36
51.09
49.99
47.49
44.26
40.85
37.42
33.84
29.73
24.79
18.93
12.38
5.57
-0.99
-6.93
-12.16
-16.90
-21.62
-26.92
-33.43
-41.56
-51.36
-62.24
-72.80
-80.98
-84.43
-81.23
-70.59
-53.27
-31.47
-8.14
13.86
32.54
47.02
57.37
64.02
67.44
67.97
66.02
62.36
58.18
54.75
53.03
53.22
54.71
56.46
57.46
57.18
55.71
53.40
50.57
47.20
42.93
37.34
30.22
21.76
12.43
2.79
-6.75
-15.99
-24.88
-33.38
-41.35
-48.54
-54.63
-59.19
-61.68
-61.43
-57.81
-50.44
-39.59
-26.24
-12.04
1.17
11.84
19.13
22.90
23.53
21.55
17.45
11.63
4.62
-2.84
-9.83
-15.37
-18.76
-19.74
-18.62
-16.08
-12.99
-10.07
-7.82
-6.50
-6.23
-7.22
-9.71
-13.90
-19.74
-26.76
-34.11
-40.87
-46.36
-50.48
-53.79
-57.28
-62.04
-68.87
-77.96
-88.73
-99.68
-108.63
-113.10
-110.96
-101.12
-84.00
-61.49
-36.45
-11.81
10.21
28.44
42.70
53.30
60.69
65.21
67.24
67.44
66.74
66.28
67.00
69.30
72.93
77.09
80.86
83.51
84.79
84.82
83.84
81.93
78.83
74.05
67.13
58.00
47.15
35.52
24.20
14.04
5.39
-1.96
-8.68
-15.66
-23.80
-33.74
-45.59
-58.66
-71.34
-81.38
-86.37
-84.63
-75.69
-60.61
-41.62
-21.34
-2.10
14.63
28.23
38.61
45.86
50.07
51.44
50.54
48.40
46.37
45.60
46.59
48.91
51.43
52.84
52.33
49.91
46.27
42.32
38.62
35.12
31.24
26.32
20.04
12.66
4.85
-2.60
-9.21
-14.95
-20.22
-25.58
-31.62
-38.79
-47.30
-57.05
-67.39
-76.97
-83.89
-86.07
-81.92
-70.96
-54.14
-33.55
-11.80
8.75
26.49
40.67
51.11
57.94
61.38
61.84
60.07
57.17
54.39
52.80
52.91
54.56
57.00
59.27
60.53
60.43
59.08
56.88
54.23
51.26
47.77
43.37
37.69
30.65
22.53
13.94
5.55
-2.16
-9.09
-15.54
-22.10
-29.39
-37.92
-47.84
-58.76
-69.63
-78.73
-84.00
-83.56
-76.41
-62.87
-44.60
-24.13
-4.09
13.43
27.36
37.41
43.82
47.02
47.49
45.82
42.86
39.64
37.20
36.19
36.73
38.32
40.17
41.50
41.79
40.92
39.00
36.20
32.61
28.17
22.84
16.70
9.99
3.08
-3.70
-10.15
-16.28
-22.22
-28.30
-34.84
-42.16
-50.29
-58.74
-66.28
-71.06
-71.03
-64.61
-51.36
-32.26
-9.52
14.10
36.02
54.47
68.64
78.53
84.64
87.66
88.40
87.76
86.81
86.64
88.17
91.82
97.28
103.54
109.20
112.93
113.87
111.88
107.38
101.02
93.32
84.53
74.65
63.67
51.70
39.07
26.13
13.11
-0.07
-13.77
-28.55
-44.92
-63.03
-82.31
-101.40
-118.20
-130.46
-136.55
-136.14
-130.36
-121.42
-111.78
-103.22
-96.45
-91.20
-86.79
-82.72
-78.97
-75.78
-73.28
-71.13
-68.54
-64.60
-58.77
-51.17
-42.64
-34.33
-27.35
-22.26
-19.09
-17.46
-16.88
-17.11
-18.11
-20.05
-22.97
-26.69
-30.82
-34.90
-38.63
-42.06
-45.53
-49.62
-54.95
-61.95
-70.59
-80.12
-89.00
-95.05
-95.98
-90.14
-77.17
-58.34
-36.19
-13.80
6.21
22.27
34.02
41.95
46.82
49.24
49.62
48.36
46.04
43.51
41.63
41.02
41.76
43.40
45.19
46.34
46.26
44.65
41.47
36.86
31.00
24.18
16.70
8.85
0.94
-6.82
-14.40
-21.88
-29.59
-37.99
-47.49
-58.18
-69.48
-79.93
-87.37
-89.52
-84.75
-72.76
-54.85
-33.50
-11.72
7.90
23.64
34.90
41.88
45.27
45.94
44.74
42.58
40.25
38.46
37.65
37.93
39.09
40.70
42.21
43.09
42.92
41.34
38.15
33.29
26.85
19.09
10.38
1.17
-8.15
-17.19
-25.75
-33.80
-41.53
-49.40
-58.02
-67.81
-78.63
-89.49
-98.44
-103.13
-101.38
-92.14
-75.88
-54.55
-31.00
-8.05
12.24
28.90
41.86
51.48
58.22
62.48
64.81
66.03
67.19
69.28
72.91
78.06
84.23
90.62
96.61
101.85
106.22
109.57
111.63
111.96
110.17
106.24
100.57
93.95
87.23
81.04
75.55
70.48
65.23
59.16
51.73
42.63
31.84
19.75
7.21
-4.44
-13.57
-18.70
-19.01
-14.66
-6.82
2.68
11.94
19.57
24.96
28.18
29.71
30.13
30.01
29.89
30.42
32.36
36.43
43.03
52.04
62.84
74.62
86.96
100.39
116.48
137.12
163.17
193.13
222.57
245.08
254.27
246.11
220.25
179.81
130.17
77.35
26.93
-16.52
-49.88
-72.10
-84.83
-92.44
-100.72
-114.74
-136.54
-164.26
-193.08
-217.52
-233.74
-240.68
-239.64
-232.96
-222.72
-210.20
-196.25
-181.73
-167.73
-155.27
-144.85
-136.12
-128.03
-119.39
-109.48
-98.41
-87.09
-76.81
-68.66
-63.18
-60.24
-59.13
-58.99
-58.99
-58.66
-57.86
-56.77
-55.77
-55.27
-55.63
-57.09
-59.75
-63.49
-67.88
-72.12
-75.03
-75.25
-71.57
-63.35
-50.77
-34.80
-16.93
1.23
18.38
33.63
46.44
56.53
63.76
68.14
70.01
70.02
69.05
67.89
67.13
66.92
67.09
67.30
67.17
66.46
65.01
62.71
59.50
55.34
50.23
44.28
37.72
30.84
23.92
17.11
10.44
3.74
-3.27
-10.96
-19.57
-29.04
-38.77
-47.49
-53.39
-54.55
-49.49
-37.86
-20.65
-0.08
21.08
40.36
56.19
68.13
76.60
82.40
86.28
88.73
90.05
90.50
90.38
90.07
89.91
90.21
91.20
92.99
95.53
98.46
101.01
102.14
100.90
96.91
90.74
83.81
77.94
74.49
73.81
74.97
76.15
75.19
70.12
59.67
43.71
23.50
1.86
-17.28
-29.90
-33.34
-27.71
-16.18
-4.02
3.56
3.72
-2.82
-12.22
-19.57
-21.35
-17.19
-9.79
-3.37
-1.40
-4.81
-11.68
-18.42
-21.73
-20.25
-15.06
-8.81
-4.10
-2.14
-2.29
-2.73
-1.84
0.80
4.05
5.79
3.79
-3.47
-16.43
-34.53
-56.44
-80.27
-103.80
-124.72
-140.96
-151.04
-154.28
-150.84
-141.48
-127.35
-109.91
-90.93
-72.42
-56.31
-44.10
-36.32
-32.58
-31.77
-32.55
-33.90
-35.30
-36.63
-37.97
-39.25
-40.22
-40.57
-40.07
-38.74
-36.83
-34.75
-32.93
-31.72
-31.34
-31.86
-33.25
-35.32
-37.86
-40.65
-43.61
-46.81
-50.54
-55.21
-61.25
-68.89
-77.93
-87.56
-96.32
-102.22
-103.25
-98.01
-86.24
-69.02
-48.49
-27.18
-7.25
9.97
24.01
34.92
42.91
48.11
50.63
50.76
49.16
46.86
44.92
44.13
44.73
46.35
48.18
49.24
48.66
45.94
41.03
34.36
26.61
18.51
10.62
3.12
-4.10
-11.38
-19.10
-27.60
-37.18
-47.97
-59.71
-71.55
-81.92
-88.62
-89.52
-83.24
-69.84
-50.94
-29.22
-7.66
11.41
26.77
38.31
46.50
51.96
55.04
55.91
54.74
52.04
48.68
45.73
44.09
44.17
45.68
47.84
49.63
50.15
48.86
45.60
40.53
33.98
26.33
17.92
9.07
-0.03
-9.31
-18.85
-28.92
-39.90
-52.07
-65.35
-79.02
-91.54
-100.77
-104.44
-100.90
-89.74
-72.16
-50.64
-28.18
-7.48
9.71
22.75
31.76
37.30
39.95
40.27
38.98
36.95
35.20
34.64
35.76
38.35
41.59
44.23
44.96
42.93
37.92
30.44
21.50
12.25
3.54
-4.29
-11.37
-18.22
-25.38
-33.33
-42.36
-52.66
-64.10
-76.03
-87.12
-95.34
-98.45
-94.69
-83.50
-65.86
-44.06
-21.02
0.57
18.84
33.01
43.13
49.73
53.48
54.98
54.76
53.35
51.35
49.44
48.19
48.03
49.03
50.92
53.10
54.84
55.36
54.08
50.70
45.25
38.07
29.70
20.79
11.85
3.16
-5.33
-13.93
-23.15
-33.57
-45.63
-59.32
-73.86
-87.46
-97.56
-101.39
-96.95
-83.83
-63.47
-38.79
-13.22
10.34
30.20
45.95
57.94
66.80
72.97
76.65
78.01
77.40
75.46
73.00
70.80
69.37
68.83
68.89
68.97
68.39
66.50
62.82
57.06
49.24
39.63
28.76
17.33
6.08
-4.40
-13.90
-22.56
-30.99
-39.98
-50.33
-62.42
-75.85
-89.23
-100.30
-106.53
-105.83
-97.43
-82.16
-62.25
-40.64
-20.04
-2.29
11.80
22.21
29.28
33.49
35.35
35.51
34.86
34.39
34.93
36.94
40.37
44.72
49.28
53.30
56.20
57.63
57.41
55.53
52.07
47.15
40.93
33.60
25.46
16.86
8.25
-0.01
-7.79
-15.35
-23.37
-32.68
-43.80
-56.42
-69.06
-79.22
-84.11
-81.58
-70.92
-53.24
-31.09
-7.59
14.49
33.35
48.30
59.38
66.96
71.41
73.13
72.68
70.93
68.99
67.86
68.13
69.72
71.95
73.88
74.70
74.01
71.83
68.44
64.05
58.70
52.21
44.45
35.54
25.95
16.44
7.79
0.51
-5.37
-10.28
-15.10
-20.86
-28.37
-37.87
-48.74
-59.46
-67.85
-71.67
-69.32
-60.41
-45.93
-27.92
-8.80
9.33
25.12
37.96
47.65
54.13
57.35
57.51
55.21
51.61
48.13
46.03
45.91
47.57
50.12
52.45
53.65
53.35
51.67
48.98
45.60
41.60
36.78
30.84
23.64
15.39
6.61
-2.04
-10.02
-17.12
-23.50
-29.61
-36.02
-43.22
-51.46
-60.51
-69.51
-76.94
-80.81
-79.28
-71.24
-56.91
-37.90
-16.80
3.60
21.15
34.71
44.15
49.91
52.62
52.72
50.65
46.95
42.49
38.40
35.70
35.04
36.33
38.88
41.62
43.53
43.95
42.62
39.68
35.43
30.23
24.46
18.52
12.83
7.69
3.27
-0.61
-4.37
-8.62
-13.98
-20.86
-29.20
-38.29
-46.69
-52.37
-53.27
-47.94
-36.14
-19.09
0.87
21.01
39.01
53.49
64.08
71.15
75.29
77.06
76.95
75.42
73.03
70.40
68.06
66.33
65.25
64.61
63.98
62.86
60.78
57.39
52.54
46.40
39.33
31.83
24.34
17.10
10.15
3.33
-3.58
-10.83
-18.75
-27.63
-37.63
-48.43
-59.02
-67.69
-72.35
-71.27
-63.75
-50.58
-33.84
-16.22
-0.20
12.55
21.48
26.73
28.78
28.10
25.08
20.18
14.16
8.10
3.13
0.16
-0.44
1.03
3.76
6.64
8.62
8.89
7.11
3.36
-1.90
-8.05
-14.39
-20.43
-25.94
-31.00
-35.99
-41.44
-47.85
-55.37
-63.56
-71.27
-76.78
-78.21
-74.13
-64.14
-49.14
-31.13
-12.59
4.16
17.58
27.04
32.68
34.95
34.41
31.51
26.83
21.10
15.31
10.48
7.33
6.06
6.16
6.71
6.67
5.32
2.54
-1.31
-5.51
-9.50
-13.04
-16.35
-19.94
-24.39
-30.15
-37.44
-46.18
-55.98
-65.94
-74.65
-80.21
-80.72
-74.83
-62.38
-44.60
-23.89
-3.06
15.42
30.08
40.48
46.96
50.11
50.35
47.97
43.25
36.93
30.29
24.92
22.16
22.49
25.30
29.09
32.10
33.08
31.65
28.32
24.01
19.55
15.28
11.11
6.68
1.57
-4.68
-12.49
-22.14
-33.49
-45.58
-56.59
-64.20
-66.37
-62.16
-52.19
-38.49
-23.81
-10.80
-1.47
3.03
2.23
-3.87
-14.81
-29.57
-46.46
-63.26
-77.67
-87.91
-93.28
-94.36
-92.82
-90.73
-89.80
-90.77
-93.30
-96.33
-98.70
-99.81
-99.86
-99.74
-100.66
-103.60
-109.07
-116.79
-125.72
-134.04
-139.40
-139.37
-132.15
-117.22
-95.64
-69.88
-43.10
-18.32
2.31
17.66
27.52
32.19
32.29
28.68
22.58
15.57
9.36
5.40
4.36
5.96
9.09
12.29
14.30
14.54
13.07
10.42
7.17
3.56
-0.62
-5.87
-12.82
-21.96
-33.52
-47.34
-62.59
-77.74
-90.53
-98.35
-98.95
-91.23
-75.69
-54.46
-30.63
-7.36
12.97
29.08
40.63
47.80
50.87
50.18
46.24
40.01
32.93
26.62
22.40
20.75
21.16
22.40
23.04
22.05
19.12
14.64
9.38
4.03
-1.09
-6.07
-11.25
-17.04
-23.75
-31.64
-40.89
-51.42
-62.58
-72.89
-80.08
-81.64
-75.63
-61.61
-40.91
-16.33
8.73
31.36
49.73
63.24
72.12
76.92
78.26
76.80
73.41
69.27
65.67
63.67
63.74
65.57
68.26
70.61
71.55
70.39
66.96
61.49
54.54
46.75
38.71
30.84
23.31
15.99
8.54
0.48
-8.68
-19.31
-31.39
-44.30
-56.63
-66.24
-70.71
-68.03
-57.43
-39.74
-17.31
6.68
29.17
47.94
61.89
70.98
75.73
76.94
75.53
72.45
68.77
65.49
63.37
62.72
63.39
64.80
66.22
66.93
66.36
64.17
60.30
54.89
48.27
40.87
33.13
25.41
17.93
10.82
4.05
-2.49
-9.14
-16.37
-24.70
-34.45
-45.37
-56.32
-65.31
-69.96
-68.21
-59.14
-43.35
-22.93
-0.74
20.46
38.73
53.18
63.80
70.92
74.89
76.05
74.92
72.41
69.81
68.44
69.13
71.91
75.89
79.73
82.13
82.41
80.63
77.46
73.73
70.02
66.40
62.50
57.81
52.03
45.34
38.41
32.20
27.53
24.75
23.55
23.09
22.28
20.18
16.26
10.63
4.15
-1.61
-4.55
-2.49
6.22
22.07
44.14
70.31
97.91
124.60
148.87
170.09
188.15
202.88
213.66
219.40
218.81
210.86
195.22
172.47
144.13
112.38
79.57
47.74
18.37
-7.62
-29.67
-47.21
-59.68
-66.66
-68.30
-65.58
-60.21
-54.10
-48.81
-44.98
-42.31
-39.83
-36.41
-31.30
-24.32
-15.96
-7.10
1.30
8.54
14.34
18.86
22.49
25.58
28.32
30.57
31.87
31.45
28.25
21.11
8.98
-8.64
-31.31
-57.46
-84.57
-109.66
-130.11
-144.19
-151.49
-152.75
-149.50
-143.49
-136.25
-128.88
-121.96
-115.74
-110.21
-105.27
-100.69
-96.15
-91.28
-85.78
-79.63
-73.18
-67.22
-62.72
-60.51
-61.05
-64.26
-69.61
-76.31
-83.53
-90.55
-96.83
-102.00
-105.84
-108.35
-109.76
-110.62
-111.62
-113.46
-116.48
-120.40
-124.20
-126.25
-124.73
-118.24
-106.28
-89.54
-69.76
-49.11
-29.68
-12.92
0.59
10.90
18.48
23.80
27.30
29.34
30.36
30.99
31.94
33.83
36.93
41.06
45.56
49.55
52.21
53.03
51.98
49.34
45.63
41.24
36.43
31.26
25.70
19.75
13.49
7.12
0.89
-4.94
-10.21
-14.89
-19.14
-23.26
-27.65
-32.76
-39.03
-46.75
-55.89
-65.87
-75.40
-82.56
-85.25
-81.82
-71.69
-55.68
-35.82
-14.74
5.12
22.17
35.81
46.23
53.97
59.52
63.17
65.13
65.73
65.47
65.01
64.97
65.65
67.04
68.78
70.33
71.18
70.97
69.55
66.99
63.46
59.21
54.48
49.47
44.29
38.96
33.44
27.65
21.58
15.32
9.06
3.03
-2.54
-7.62
-12.35
-17.07
-22.24
-28.34
-35.78
-44.68
-54.73
-64.95
-73.73
-79.02
-78.99
-72.65
-60.29
-43.52
-24.76
-6.43
9.70
22.81
32.91
40.43
45.80
49.31
51.21
51.83
51.72
51.51
51.74
52.63
54.04
55.54
56.62
56.92
56.31
54.91
52.89
50.36
47.30
43.60
39.19
34.17
28.83
23.56
18.66
14.24
10.10
5.91
1.32
-3.79
-9.26
-14.75
-19.90
-24.51
-28.67
-32.79
-37.48
-43.40
-50.98
-60.15
-70.10
-79.19
-85.26
-86.20
-80.67
-68.68
-51.66
-32.06
-12.53
4.83
18.94
29.68
37.48
42.88
46.24
47.80
47.85
46.96
45.84
45.23
45.57
46.83
48.58
50.25
51.40
51.80
51.47
50.44
48.67
46.06
42.51
38.11
33.13
28.02
23.14
18.71
14.66
10.73
6.54
1.78
-3.62
-9.51
-15.53
-21.24
-26.31
-30.67
-34.57
-38.59
-43.47
-49.95
-58.35
-68.28
-78.41
-86.61
-90.42
-87.90
-78.33
-62.63
-43.04
-22.48
-3.53
12.22
24.25
32.90
38.75
42.25
43.67
43.26
41.51
39.22
37.37
36.72
37.62
39.77
42.44
44.72
45.90
45.62
43.98
41.39
38.31
35.12
31.87
28.39
24.32
19.37
13.51
6.98
0.32
-5.88
-11.23
-15.68
-19.52
-23.25
-27.38
-32.27
-38.16
-45.15
-53.16
-61.72
-69.75
-75.55
-77.19
-73.16
-63.03
-47.83
-29.77
-11.50
4.72
17.63
27.00
33.33
37.26
39.26
39.56
38.44
36.34
33.98
32.18
31.57
32.36
34.26
36.60
38.59
39.58
39.30
37.80
35.42
32.53
29.38
25.99
22.20
17.74
12.45
6.37
-0.20
-6.79
-12.91
-18.21
-22.67
-26.53
-30.26
-34.40
-39.43
-45.74
-53.48
-62.46
-71.90
-80.36
-85.83
-86.31
-80.44
-68.12
-50.74
-30.73
-10.88
6.55
20.31
30.18
36.65
40.42
42.03
41.90
40.43
38.18
35.90
34.41
34.29
35.67
38.19
41.08
43.48
44.69
44.38
42.68
39.94
36.63
33.08
29.39
25.42
20.93
15.74
9.80
3.30
-3.41
-9.92
-15.89
-21.17
-25.84
-30.15
-34.48
-39.26
-44.93
-51.86
-60.15
-69.42
-78.53
-85.63
-88.49
-85.26
-75.21
-59.17
-39.43
-18.94
-0.38
14.59
25.57
33.07
37.89
40.65
41.66
41.11
39.40
37.22
35.41
34.70
35.36
37.19
39.61
41.91
43.51
44.10
43.56
41.98
39.55
36.48
32.98
29.18
25.11
20.64
15.63
10.00
3.86
-2.48
-8.61
-14.15
-19.02
-23.33
-27.47
-31.84
-36.82
-42.73
-49.84
-58.22
-67.53
-76.68
-83.83
-86.74
-83.50
-73.33
-57.09
-37.09
-16.33
2.46
17.58
28.52
35.68
39.80
41.53
41.33
39.65
37.05
34.32
32.27
31.48
32.13
33.91
36.23
38.38
39.78
40.10
39.28
37.47
34.94
31.98
28.74
25.25
21.34
16.80
11.48
5.40
-1.25
-8.07
-14.66
-20.72
-26.14
-31.02
-35.62
-40.28
-45.44
-51.57
-59.08
-68.08
-78.08
-87.80
-95.24
-98.09
-94.50
-83.73
-66.56
-45.11
-22.22
-0.56
18.01
32.68
43.46
50.82
55.23
57.13
56.96
55.33
53.06
51.02
49.81
49.64
50.24
51.09
51.62
51.50
50.63
49.09
46.97
44.29
41.02
37.14
32.68
27.79
22.60
17.19
11.53
5.54
-0.79
-7.35
-13.87
-20.00
-25.48
-30.25
-34.46
-38.51
-42.93
-48.30
-55.07
-63.43
-72.91
-82.24
-89.44
-92.17
-88.56
-77.91
-61.14
-40.57
-19.21
0.23
16.03
27.73
35.80
41.09
44.36
46.03
46.31
45.44
43.88
42.29
41.36
41.53
42.84
44.83
46.79
48.01
48.09
46.99
45.02
42.55
39.88
37.08
34.03
30.56
26.55
22.04
17.23
12.48
8.21
4.94
3.13
3.13
4.97
8.33
12.51
16.48
19.13
19.50
17.18
12.55
6.91
2.27
0.81
4.20
12.99
26.40
42.63
59.45
74.98
88.05
98.30
105.88
111.08
114.06
114.90
113.80
111.20
107.91
104.83
102.77
102.08
102.58
103.61
104.25
103.63
101.13
96.52
89.92
81.63
71.98
61.14
49.27
36.43
22.87
8.92
-4.90
-18.06
-30.10
-40.71
-49.82
-57.54
-64.32
-70.78
-77.75
-85.91
-95.39
-105.52
-114.71
-120.83
-121.80
-116.49
-105.11
-89.23
-71.32
-53.95
-39.10
-27.79
-20.18
-15.87
-14.33
-15.03
-17.56
-21.48
-26.33
-31.59
-36.88
-41.98
-46.89
-51.73
-56.60
-61.53
-66.53
-71.69
-77.23
-83.53
-90.97
-99.79
-109.87
-120.68
-131.32
-140.71
-147.78
-151.76
-152.39
-149.91
-145.05
-138.81
-132.26
-126.34
-121.64
-118.15
-115.12
-111.14
-104.31
-92.87
-75.82
-53.38
-27.06
0.71
27.35
50.78
70.01
85.15
97.30
108.23
120.02
134.58
153.02
174.88
197.49
216.10
224.80
218.33
194.02
153.03
100.30
43.14
-10.86
-55.89
-88.92
-109.69
-119.84
-121.74
-117.77
-110.09
-100.61
-91.19
-83.56
-79.06
-78.29
-80.85
-85.28
-89.33
-90.53
-86.89
-77.53
-62.88
-44.62
-25.00
-6.16
10.42
24.10
34.81
42.63
47.43
48.92
46.97
42.01
35.24
28.38
23.14
20.59
20.81
22.95
25.62
27.43
27.38
24.98
20.22
13.44
5.12
-4.09
-13.45
-22.28
-30.10
-36.75
-42.54
-48.06
-54.15
-61.53
-70.56
-80.87
-91.23
-99.57
-103.48
-100.90
-90.95
-74.35
-53.37
-31.08
-10.49
6.35
18.62
26.51
30.76
32.14
31.27
28.73
25.28
21.89
19.60
19.20
20.98
24.58
29.18
33.77
37.44
39.65
40.16
39.06
36.56
32.94
28.46
23.35
17.77
11.83
5.56
-1.04
-8.06
-15.67
-24.08
-33.27
-42.77
-51.38
-57.17
-57.92
-51.76
-37.99
-17.48
7.47
33.82
58.66
79.97
96.88
109.47
118.33
124.16
127.65
129.53
130.74
132.39
135.49
140.65
147.74
155.91
163.86
170.33
174.51
176.30
176.04
174.22
171.07
166.31
159.31
149.33
135.86
118.84
98.69
76.29
52.80
29.42
7.12
-13.60
-32.73
-50.49
-66.86
-81.20
-92.12
-97.98
-97.60
-90.95
-79.31
-64.96
-50.31
-37.12
-26.21
-17.49
-10.51
-4.84
-0.31
3.12
5.50
7.14
8.47
9.85
11.36
12.59
12.80
11.22
7.48
1.78
-5.13
-12.33
-19.14
-25.40
-31.30
-37.10
-42.80
-47.94
-51.89
-54.21
-54.96
-54.76
-54.46
-54.88
-56.47
-59.25
-62.90
-66.81
-70.24
-72.27
-71.95
-68.52
-61.68
-51.78
-39.87
-27.44
-15.93
-6.40
0.77
5.73
9.08
11.43
13.24
14.71
15.89
16.76
17.38
17.88
18.39
18.88
19.19
19.04
18.19
16.58
14.35
11.77
9.10
6.51
4.01
1.57
-0.78
-2.99
-4.89
-6.47
-7.93
-9.70
-12.32
-16.25
-21.72
-28.68
-36.85
-45.84
-55.09
-63.80
-70.89
-75.13
-75.44
-71.39
-63.38
-52.75
-41.28
-30.71
-22.26
-16.46
-13.25
-12.25
-12.91
-14.61
-16.68
-18.39
-19.14
-18.67
-17.10
-14.91
-12.74
-11.10
-10.19
-9.94
-10.05
-10.24
-10.42
-10.69
-11.31
-12.57
-14.65
-17.52
-20.90
-24.41
-27.73
-30.76
-33.69
-36.85
-40.71
-45.59
-51.62
-58.68
-66.23
-73.35
-78.78
-81.13
-79.28
-72.85
-62.36
-49.13
-34.87
-21.19
-9.18
0.58
7.89
12.70
15.08
15.23
13.73
11.48
9.57
8.93
10.02
12.65
16.10
19.43
21.80
22.78
22.36
20.91
18.92
16.78
14.67
12.50
10.04
7.04
3.39
-0.85
-5.48
-10.17
-14.69
-18.88
-22.79
-26.64
-30.81
-35.71
-41.66
-48.71
-56.47
-64.01
-69.94
-72.73
-71.15
-64.65
-53.63
-39.33
-23.49
-7.89
6.12
17.72
26.65
33.03
37.14
39.35
40.10
39.94
39.49
39.33
39.96
41.54
43.92
46.62
49.02
50.57
50.97
50.26
48.73
46.78
44.77
42.85
40.91
38.71
35.96
32.47
28.18
23.22
17.87
12.53
7.55
3.17
-0.61
-4.04
-7.60
-11.79
-16.96
-23.11
-29.67
-35.59
-39.37
-39.40
-34.47
-24.04
-8.62
10.38
30.93
50.97
68.85
83.59
94.82
102.55
106.96
108.32
107.10
104.14
100.54
97.43
95.51
94.78
94.47
93.44
90.71
85.87
79.12
71.03
62.18
52.88
43.24
33.26
23.11
13.09
3.49
-5.57
-14.22
-22.68
-31.04
-39.15
-46.73
-53.56
-59.71
-65.66
-72.09
-79.64
-88.57
-98.64
-109.03
-118.52
-125.71
-129.39
-128.81
-123.88
-115.25
-104.07
-91.70
-79.42
-68.15
-58.34
-50.01
-42.90
-36.44
-30.00
-22.81
-14.21
-3.69
9.03
24.02
41.08
59.90
80.03
100.97
122.36
144.07
166.33
189.69
214.76
241.67
269.62
296.59
319.60
335.34
341.12
335.50
318.60
291.87
257.42
217.43
173.68
127.37
79.07
28.86
-23.32
-77.22
-131.71
-184.49
-232.28
-271.62
-299.92
-316.27
-321.66
-318.37
-309.15
-296.40
-281.86
-266.76
-252.13
-238.96
-228.02
-219.56
-213.03
-207.25
-200.80
-192.70
-182.77
-171.66
-160.58
-150.55
-141.89
-134.00
-125.71
-115.96
-104.46
-92.02
-80.27
-70.93
-65.00
-62.35
-61.87
-62.11
-61.95
-61.09
-59.94
-59.29
-59.85
-62.01
-65.86
-71.27
-77.79
-84.41
-89.42
-90.59
-85.75
-73.68
-54.74
-30.91
-5.17
19.49
40.90
58.08
70.93
79.76
84.88
86.60
85.45
82.50
79.21
77.04
76.90
78.75
81.71
84.53
86.19
86.32
85.24
83.62
81.97
80.25
77.75
73.43
66.42
56.47
44.24
31.09
18.62
8.09
-0.01
-6.16
-11.52
-17.55
-25.55
-36.25
-49.50
-64.10
-77.83
-87.81
-91.20
-86.06
-72.11
-50.91
-25.42
0.92
25.19
45.58
61.47
73.02
80.74
85.20
86.99
86.88
85.85
84.86
84.56
85.13
86.16
87.04
87.21
86.41
84.66
82.13
78.83
74.55
68.90
61.52
52.31
41.65
30.31
19.26
9.37
1.09
-5.67
-11.51
-17.42
-24.46
-33.42
-44.40
-56.56
-67.97
-75.96
-77.83
-71.70
-57.30
-36.20
-11.42
13.49
35.49
52.74
64.71
71.87
75.06
75.15
72.89
69.02
64.42
60.05
56.72
54.90
54.52
55.06
55.74
55.85
54.86
52.56
48.91
43.96
37.82
30.64
22.73
14.52
6.51
-0.90
-7.61
-13.84
-20.13
-27.17
-35.52
-45.36
-56.10
-66.29
-73.83
-76.38
-72.23
-60.92
-43.58
-22.65
-1.16
18.20
33.67
44.64
51.34
54.36
54.28
51.70
47.32
42.19
37.67
35.19
35.82
39.86
46.54
54.01
59.72
61.18
56.73
46.20
31.00
13.61
-3.31
-17.84
-29.27
-37.93
-44.64
-50.16
-54.92
-59.16
-63.31
-68.08
-74.17
-81.66
-89.46
-95.31
-96.37
-90.30
-76.32
-55.62
-31.10
-6.34
15.51
32.62
44.61
52.20
56.55
58.71
59.36
59.00
58.12
57.38
57.49
58.96
61.86
65.79
70.04
73.80
76.46
77.67
77.30
75.33
71.76
66.61
60.06
52.41
44.11
35.64
27.35
19.31
11.30
2.76
-7.02
-18.60
-31.94
-46.00
-58.70
-67.35
-69.46
-63.71
-50.59
-32.33
-12.18
6.66
21.98
32.97
39.96
43.88
45.57
45.56
44.12
41.51
38.14
34.71
31.88
30.18
29.68
30.09
30.82
31.21
30.63
28.64
24.99
19.68
12.94
5.25
-2.73
-10.39
-17.28
-23.33
-28.79
-34.19
-40.20
-47.36
-55.88
-65.31
-74.41
-81.21
-83.46
-79.37
-68.34
-51.33
-30.73
-9.55
9.45
24.56
35.31
42.20
46.12
47.94
48.22
47.36
45.74
43.91
42.41
41.71
41.93
42.82
43.83
44.27
43.55
41.28
37.42
32.17
25.93
19.16
12.27
5.55
-0.84
-6.89
-12.71
-18.55
-24.81
-31.97
-40.44
-50.15
-60.26
-68.98
-73.97
-72.98
-64.79
-49.78
-30.00
-8.54
11.53
28.02
40.04
47.86
52.28
54.07
53.71
51.45
47.66
43.05
38.59
35.24
33.64
33.79
35.08
36.48
36.91
35.65
32.43
27.58
21.74
15.62
9.66
3.98
-1.65
-7.56
-14.05
-21.30
-29.38
-38.31
-47.88
-57.41
-65.54
-70.37
-69.93
-62.98
-49.65
-31.57
-11.44
7.92
24.33
36.74
45.05
49.76
51.39
50.37
47.09
42.16
36.47
31.15
27.21
25.25
25.25
26.53
28.11
28.91
28.19
25.66
21.53
16.26
10.45
4.52
-1.30
-7.03
-12.78
-18.75
-25.18
-32.30
-40.24
-48.77
-57.08
-63.70
-66.77
-64.59
-56.26
-42.27
-24.40
-5.26
12.52
27.06
37.56
44.12
47.35
47.91
46.36
43.18
39.02
34.68
31.03
28.74
28.03
28.61
29.80
30.77
30.81
29.48
26.68
22.56
17.45
11.73
5.77
-0.14
-5.88
-11.44
-16.94
-22.65
-28.92
-36.10
-44.39
-53.48
-62.36
-69.27
-72.13
-69.16
-59.68
-44.45
-25.60
-5.95
11.83
25.97
35.77
41.50
43.82
43.41
40.84
36.63
31.45
26.19
21.79
19.00
18.08
18.76
20.36
21.97
22.82
22.38
20.54
17.43
13.38
8.70
3.70
-1.43
-6.58
-11.67
-16.73
-21.88
-27.43
-33.82
-41.41
-50.18
-59.38
-67.43
-72.20
-71.66
-64.60
-51.21
-33.13
-12.98
6.44
22.86
35.08
42.85
46.64
47.17
45.18
41.40
36.63
31.74
27.57
24.72
23.40
23.30
23.85
24.41
24.56
24.12
23.07
21.36
18.82
15.21
10.35
4.37
-2.32
-9.12
-15.46
-21.03
-25.90
-30.51
-35.56
-41.75
-49.48
-58.51
-67.75
-75.32
-79.00
-76.89
-68.15
-53.42
-34.69
-14.71
3.85
19.12
30.31
37.47
41.20
42.17
41.00
38.30
34.81
31.36
28.78
27.60
27.84
29.02
30.38
31.19
31.03
29.89
28.00
25.56
22.58
18.84
14.04
8.10
1.27
-5.85
-12.53
-18.21
-22.73
-26.46
-30.10
-34.55
-40.52
-48.28
-57.34
-66.44
-73.68
-76.94
-74.52
-65.77
-51.35
-33.20
-13.88
4.17
19.19
30.40
37.82
41.84
42.95
41.62
38.46
34.34
30.35
27.54
26.59
27.53
29.70
32.08
33.69
33.98
32.93
30.96
28.53
25.87
22.82
18.94
13.82
7.37
-0.09
-7.86
-15.19
-21.53
-26.76
-31.20
-35.48
-40.35
-46.46
-54.01
-62.51
-70.61
-76.31
-77.47
-72.55
-61.28
-44.87
-25.69
-6.54
10.21
23.10
31.73
36.41
37.76
36.42
33.12
28.67
24.06
20.31
18.16
17.88
19.13
21.14
23.06
24.24
24.38
23.51
21.75
19.14
15.60
11.01
5.34
-1.18
-8.08
-14.77
-20.77
-25.81
-29.99
-33.71
-37.58
-42.27
-48.14
-55.01
-61.86
-67.00
-68.40
-64.41
-54.49
-39.47
-21.49
-3.23
12.87
25.26
33.47
37.88
39.22
38.28
35.72
32.18
28.39
25.14
23.13
22.70
23.70
25.58
27.57
29.00
29.44
28.74
26.91
23.92
19.72
14.30
7.79
0.61
-6.67
-13.46
-19.42
-24.54
-29.20
-33.92
-39.37
-46.01
-53.93
-62.62
-70.80
-76.64
-78.12
-73.79
-63.29
-47.64
-28.97
-9.89
7.34
21.24
31.29
37.59
40.57
40.73
38.67
35.18
31.21
27.82
25.74
25.30
26.21
27.84
29.45
30.51
30.81
30.39
29.35
27.64
25.05
21.32
16.26
9.95
2.78
-4.67
-11.78
-18.14
-23.71
-28.80
-34.00
-39.95
-47.09
-55.45
-64.39
-72.58
-78.18
-79.27
-74.47
-63.48
-47.32
-28.15
-8.63
8.84
22.68
32.32
38.00
40.37
40.12
37.95
34.55
30.78
27.53
25.56
25.20
26.29
28.20
30.14
31.47
31.86
31.33
30.07
28.18
25.59
22.07
17.38
11.49
4.70
-2.42
-9.25
-15.34
-20.60
-25.32
-30.07
-35.47
-42.04
-49.90
-58.62
-67.08
-73.56
-76.14
-73.22
-64.19
-49.74
-31.79
-12.85
4.73
19.30
30.20
37.46
41.44
42.56
41.27
38.21
34.28
30.55
28.04
27.24
28.00
29.63
31.21
32.01
31.77
30.66
29.00
26.98
24.50
21.23
16.85
11.28
4.78
-2.12
-8.84
-14.93
-20.27
-25.01
-29.57
-34.55
-40.50
-47.77
-56.14
-64.67
-71.68
-75.12
-73.20
-65.06
-51.16
-33.30
-14.00
4.22
19.47
30.80
38.13
41.84
42.56
40.96
37.81
34.02
30.60
28.45
28.07
29.40
31.87
34.62
36.90
38.21
38.48
37.84
36.45
34.31
31.26
27.12
21.87
15.79
9.47
3.56
-1.40
-5.27
-8.28
-11.02
-14.20
-18.49
-24.22
-31.19
-38.49
-44.50
-47.21
-44.66
-35.70
-20.41
-0.21
22.56
45.38
66.28
84.10
98.43
109.15
116.11
119.07
118.03
113.49
106.62
98.98
92.02
86.56
82.76
80.18
78.34
76.91
75.88
75.26
74.83
74.05
72.18
68.69
63.48
57.02
50.14
43.66
38.06
33.34
29.12
24.79
19.80
13.63
5.91
-3.56
-14.51
-25.94
-36.05
-42.45
-43.00
-36.68
-24.23
-8.05
8.55
22.58
32.33
37.58
39.20
38.20
35.08
29.70
21.68
10.99
-1.75
-15.47
-29.11
-42.16
-54.81
-67.68
-81.39
-96.18
-111.84
-128.01
-144.42
-161.15
-178.48
-196.56
-215.13
-233.28
-249.55
-262.19
-269.56
-270.57
-264.82
-252.76
-235.56
-214.93
-192.81
-170.96
-150.50
-131.52
-113.00
-93.08
-69.64
-41.10
-6.96
31.81
72.94
113.16
148.63
175.54
190.60
191.69
178.44
152.55
117.84
79.57
43.39
14.10
-5.43
-14.68
-15.26
-10.13
-2.48
5.04
10.85
14.33
15.54
14.76
12.32
8.53
3.82
-1.21
-5.91
-9.76
-12.62
-14.73
-16.64
-18.95
-22.02
-25.86
-30.15
-34.47
-38.45
-41.80
-44.12
-44.61
-42.03
-34.90
-21.94
-2.72
22.04
50.46
79.77
106.79
128.31
141.53
144.42
136.17
117.56
91.05
60.52
30.41
4.70
-13.89
-24.37
-27.31
-24.33
-17.40
-8.44
0.90
9.37
16.04
20.39
22.36
22.51
21.94
22.02
24.00
28.50
35.16
42.42
47.78
48.27
41.28
25.39
1.15
-28.77
-59.88
-86.90
-105.07
-111.36
-105.11
-87.98
-63.29
-34.91
-6.44
19.38
40.82
57.04
68.10
74.95
79.52
84.46
92.42
105.02
121.76
139.60
153.61
158.36
149.90
127.30
93.17
52.94
13.19
-20.31
-44.09
-57.44
-62.01
-60.63
-56.12
-50.38
-44.03
-36.71
-27.79
-17.15
-5.77
4.27
10.28
9.92
2.00
-12.95
-32.87
-54.72
-75.28
-91.81
-102.39
-106.03
-102.63
-92.97
-78.66
-61.85
-44.87
-29.66
-17.28
-7.89
-0.88
4.61
9.34
13.83
18.50
23.78
30.04
37.40
45.39
52.92
58.56
61.11
60.21
56.68
52.41
49.84
51.23
57.81
69.13
82.69
94.03
97.62
88.34
63.32
23.41
-26.48
-78.34
-123.28
-154.11
-167.27
-163.32
-146.09
-120.79
-92.26
-63.82
-37.19
-13.03
8.37
26.72
41.90
54.26
64.92
75.65
88.36
104.62
125.26
150.14
178.15
207.03
233.50
253.55
263.18
259.38
241.14
209.76
168.63
122.23
75.10
30.86
-8.20
-41.24
-68.68
-91.86
-112.69
-133.05
-154.27
-176.52
-198.58
-217.95
-231.55
-236.57
-231.51
-216.71
-194.39
-168.04
-141.33
-117.20
-97.21
-81.66
-70.06
-61.75
-56.25
-53.18
-51.91
-51.48
-50.67
-48.44
-44.32
-38.64
-32.22
-26.00
-20.52
-15.81
-11.53
-7.41
-3.58
-0.62
0.73
0.03
-2.58
-6.33
-10.13
-13.00
-14.47
-14.63
-14.06
-13.73
-14.86
-18.78
-26.55
-38.39
-53.25
-68.70
-81.49
-88.62
-88.35
-80.80
-67.68
-51.47
-34.50
-18.47
-4.33
7.33
16.08
21.71
24.43
25.09
25.05
25.69
27.91
31.82
36.64
41.14
44.10
44.77
43.02
39.26
34.16
28.29
22.07
15.71
9.31
3.06
-2.86
-8.33
-13.37
-18.19
-23.18
-28.79
-35.36
-42.95
-51.01
-58.28
-62.91
-62.87
-56.69
-44.05
-26.02
-4.79
17.06
37.29
54.47
68.05
78.05
84.78
88.68
90.34
90.58
90.26
90.12
90.49
91.29
92.21
92.90
93.19
93.04
92.43
91.27
89.37
86.51
82.59
77.62
71.73
65.17
58.22
51.23
44.53
38.47
33.31
29.11
25.76
22.83
19.80
16.23
12.22
8.69
7.41
10.46
19.42
34.58
54.50
76.52
97.64
115.55
129.15
138.29
143.09
143.37
138.61
128.51
113.70
96.05
78.24
62.71
50.63
41.40
33.12
23.60
11.53
-2.99
-18.58
-33.56
-46.81
-58.42
-69.58
-81.94
-96.75
-114.32
-133.88
-153.94
-172.89
-189.37
-202.64
-212.45
-219.00
-222.70
-224.01
-223.17
-220.02
-213.96
-204.10
-189.63
-170.40
-147.13
-121.48
-95.56
-71.42
-50.48
-33.38
-20.11
-10.29
-3.41
1.14
4.03
6.12
8.32
11.46
15.97
21.76
28.22
34.42
39.45
42.65
43.82
43.04
40.64
36.84
31.78
25.51
18.21
10.22
2.12
-5.46
-12.14
-17.93
-23.32
-29.14
-36.29
-45.38
-56.23
-67.68
-77.60
-83.35
-82.56
-73.92
-57.83
-36.30
-12.42
10.55
30.17
45.17
55.43
61.52
64.22
64.27
62.40
59.46
56.49
54.52
54.26
55.82
58.66
61.82
64.27
65.20
64.19
61.14
56.18
49.53
41.53
32.56
23.07
13.47
4.12
-4.82
-13.33
-21.54
-29.76
-38.42
-47.92
-58.47
-69.62
-80.12
-87.96
-90.87
-87.07
-76.02
-58.69
-37.34
-14.80
6.40
24.56
38.98
49.62
56.68
60.47
61.31
59.79
56.82
53.45
50.68
49.15
49.02
50.02
51.66
53.38
54.60
54.77
53.40
50.13
44.88
37.87
29.60
20.64
11.41
2.06
-7.62
-18.02
-29.72
-43.27
-59.14
-77.50
-98.03
-119.72
-140.70
-158.55
-170.87
-176.01
-173.72
-165.34
-153.22
-139.99
-127.60
-116.84
-107.31
-97.72
-86.50
-72.20
-53.85
-31.08
-4.21
25.71
56.94
87.28
114.46
136.60
152.71
162.83
167.98
169.73
169.61
168.55
166.64
163.32
157.82
149.74
139.37
127.65
115.86
105.06
95.80
87.82
80.20
71.54
60.59
46.65
29.99
11.94
-5.35
-19.50
-28.55
-31.57
-28.89
-21.94
-12.62
-2.77
6.38
14.16
20.32
24.56
26.35
25.06
20.26
12.23
2.11
-8.22
-16.70
-21.80
-23.12
-21.49
-18.70
-16.80
-17.36
-20.98
-27.24
-35.05
-43.26
-51.14
-58.58
-65.92
-73.68
-82.36
-92.33
-103.85
