1571136558.00
64.000000
-0.00
-0.00
-0.00
-0.00
-0.00
-0.00
-0.00
-0.00
-0.00
-0.00
0.00
0.01
0.01
-0.00
-0.03
-0.05
-0.05
0.00
0.13
0.36
0.66
1.01
1.37
1.72
2.06
2.40
2.79
3.24
3.80
4.42
5.06
5.66
6.20
6.68
7.15
7.68
8.31
9.14
10.09
11.04
11.88
12.56
13.14
13.76
14.65
15.96
17.91
20.32
22.90
25.38
27.58
29.57
31.68
34.32
37.81
42.54
48.15
54.10
59.83
64.97
69.58
74.14
79.34
85.71
93.76
103.00
112.62
121.73
129.77
136.75
143.30
150.75
157.77
166.64
177.95
191.79
206.97
220.57
228.25
225.36
208.53
176.87
132.76
80.05
23.07
-34.94
-92.44
-149.16
-205.23
-260.37
-313.74
-363.87
-409.83
-450.91
-486.50
-515.74
-537.23
-549.22
-549.96
-538.37
-514.21
-478.67
-433.88
-382.45
-327.02
-269.84
-212.63
-156.66
-102.95
-52.37
-5.90
35.58
71.43
101.35
125.50
144.38
158.69
169.15
176.37
180.75
182.57
182.07
179.51
175.23
169.65
163.18
156.15
148.81
141.30
133.69
126.02
118.33
110.69
103.16
95.80
88.68
81.83
75.25
68.95
62.95
57.25
51.86
46.78
42.03
37.59
33.45
29.61
26.07
22.81
19.83
17.11
14.67
12.48
10.54
8.83
7.35
6.07
4.97
4.05
3.27
2.62
2.09
1.65
1.30
1.01
0.79
0.61
0.48
0.37
0.28
0.22
0.18
0.14
0.11
0.09
0.08
0.07
0.07
0.07
0.07
0.08
0.08
0.09
0.09
0.10
0.11
0.11
0.11
0.12
0.12
0.12
0.12
0.12
0.12
0.12
0.13
0.14
0.16
0.19
0.23
0.28
0.33
0.41
0.49
0.58
0.69
0.80
0.93
1.06
1.19
1.33
1.48
1.63
1.79
1.95
2.13
2.31
2.52
2.73
2.96
3.21
3.47
3.76
4.08
4.43
4.81
5.24
5.68
6.18
6.74
7.35
8.02
8.75
9.52
10.30
11.09
11.80
12.40
12.85
13.12
13.22
13.19
13.08
12.98
13.03
13.28
13.91
15.00
16.62
18.84
21.63
24.94
28.66
32.67
36.74
40.68
44.29
47.34
49.58
50.78
50.71
49.23
46.28
41.69
35.60
28.16
19.66
10.42
0.87
-8.62
-17.62
-25.23
-31.58
-36.54
-40.10
-42.34
-43.42
-43.55
-42.90
-42.00
-40.71
-39.24
-37.64
-36.03
-34.50
-33.18
-32.07
-31.16
-30.41
-29.68
-29.00
-28.34
-27.75
-27.32
-27.18
-27.36
-27.82
-28.44
-29.00
-29.44
-29.73
-30.02
-30.59
-31.71
-33.48
-35.75
-38.07
-39.80
-40.38
-39.46
-37.06
-33.48
-29.09
-24.43
-19.10
-12.44
-3.88
6.71
18.71
30.72
40.80
47.12
48.48
44.67
36.63
25.82
13.60
0.78
-12.59
-26.91
-42.61
-58.84
-76.14
-94.43
-112.87
-129.34
-140.21
-141.30
-129.39
-104.39
-70.03
-33.22
-1.19
21.01
32.26
34.98
33.11
29.98
27.02
24.01
20.31
16.22
12.93
11.86
13.70
17.98
23.35
28.21
31.54
33.21
34.09
35.30
37.65
41.19
45.19
48.42
49.74
48.55
45.00
39.89
34.30
29.14
24.81
21.22
17.90
14.37
10.38
6.06
1.87
-1.54
-3.61
-4.15
-3.29
-1.49
0.69
2.76
4.41
5.56
6.50
7.49
8.71
10.09
11.34
12.08
11.99
10.92
9.02
6.98
5.50
5.10
6.01
8.10
11.01
14.44
18.27
22.56
27.97
35.03
44.17
55.82
70.58
89.17
112.13
139.46
167.46
192.52
211.23
221.48
223.09
217.49
206.74
192.44
175.19
154.91
132.13
108.05
84.54
63.33
45.22
29.85
16.30
4.02
-6.46
-13.35
-14.80
-9.85
0.77
14.55
27.83
36.72
38.07
30.11
12.84
-12.50
-43.96
-79.41
-116.91
-154.67
-190.89
-223.54
-250.46
-269.72
-280.28
-282.46
-277.89
-269.02
-258.37
-247.73
-237.93
-228.91
-220.10
-210.89
-200.88
-189.77
-177.16
-162.46
-145.01
-124.67
-102.24
-79.70
-59.85
-45.30
-37.60
-36.51
-40.22
-45.89
-50.68
-52.33
-49.47
-41.55
-28.63
-11.39
8.77
29.76
49.18
65.05
76.53
84.31
90.25
96.50
104.49
114.29
124.70
134.09
141.31
146.28
149.89
153.24
156.90
160.52
163.07
163.53
161.54
157.67
153.14
149.26
146.82
145.83
145.62
145.17
143.56
140.21
135.12
128.75
121.99
116.30
113.31
114.50
120.30
129.16
137.23
139.01
129.08
104.26
65.35
17.27
-32.49
-76.57
-110.33
-132.90
-146.58
-154.99
-160.95
-165.48
-168.07
-167.76
-164.44
-159.32
-154.55
-152.26
-153.44
-157.38
-161.95
-164.44
-162.49
-155.00
-142.75
-128.05
-114.30
-104.73
-101.16
-103.28
-108.69
-113.90
-115.74
-112.45
-103.77
-90.35
-72.74
-51.09
-25.67
2.31
30.39
55.33
74.60
87.52
95.13
98.91
98.91
92.94
77.45
49.93
11.06
-34.53
-79.97
-119.19
-149.37
-171.50
-188.52
-202.51
-212.49
-214.61
-204.17
-178.33
-137.83
-86.67
-30.40
25.97
79.13
127.30
169.32
203.89
229.52
245.17
251.00
248.68
241.11
231.79
224.12
220.70
222.90
230.43
241.43
252.92
261.61
264.90
261.61
252.12
237.97
221.16
203.30
185.12
166.37
146.30
124.23
100.28
75.64
52.40
32.82
18.44
9.42
4.54
1.73
-1.10
-5.50
-12.47
-22.66
-36.81
-55.71
-79.78
-108.63
-140.67
-173.36
-203.60
-228.36
-245.16
-252.51
-250.44
-240.83
-227.46
-215.37
-209.34
-212.10
-223.05
-238.10
-251.13
-256.21
-249.75
-231.61
-204.74
-173.94
-144.12
-119.00
-100.35
-88.01
-80.22
-74.27
-67.40
-57.48
-43.55
-25.88
-5.58
15.99
37.52
57.95
76.39
92.29
105.73
117.64
129.66
143.53
160.18
179.06
198.17
214.86
226.91
233.40
234.84
232.58
227.93
221.62
213.61
203.39
190.41
174.38
155.58
135.08
114.68
96.60
82.68
73.72
68.95
66.40
63.71
59.24
52.69
44.93
37.22
30.40
24.50
19.09
13.80
8.77
4.58
1.82
0.73
1.11
2.65
5.14
8.33
11.37
12.42
8.87
-1.80
-20.71
-46.93
-77.74
-109.91
-140.99
-169.99
-196.80
-220.97
-240.81
-253.44
-256.08
-247.70
-230.02
-207.15
-184.03
-164.72
-151.11
-142.83
-137.95
-133.91
-128.33
-119.42
-106.18
-88.62
-67.95
-46.35
-26.35
-9.77
3.08
13.55
23.88
36.04
50.92
68.12
86.39
104.25
120.23
132.57
138.96
136.71
123.72
99.75
67.28
31.05
-3.38
-31.54
-51.39
-63.53
-70.33
-74.68
-78.89
-84.39
-91.82
-101.42
-113.27
-127.13
-142.31
-157.54
-171.10
-181.09
-185.81
-183.95
-174.90
-158.86
-136.89
-110.88
-83.22
-56.22
-31.47
-9.18
11.70
33.07
56.64
82.93
110.83
137.70
160.33
176.08
183.93
184.68
180.50
173.99
167.33
161.57
156.57
151.15
143.56
132.09
115.27
92.21
63.02
29.17
-6.73
-41.46
-72.21
-97.35
-116.07
-128.52
-135.29
-136.94
-133.98
-127.08
-117.35
-106.13
-94.63
-82.62
-69.21
-53.60
-35.85
-17.02
1.38
18.43
34.69
52.23
74.84
105.20
143.06
184.67
224.02
255.34
275.46
285.09
281.37
264.80
238.10
205.43
171.03
137.95
107.95
82.00
60.83
44.52
33.23
26.23
22.15
19.61
17.76
16.46
15.86
16.44
18.14
21.14
25.12
29.36
33.16
35.96
37.59
37.82
37.00
35.01
32.00
28.16
22.99
16.07
7.28
-3.15
-15.28
-28.32
-41.92
-55.67
-69.34
-82.90
-96.46
-110.13
-120.75
-128.85
-134.58
-138.30
-140.02
-139.57
-136.72
-131.41
-123.49
-112.70
-102.12
-90.24
-75.96
-58.70
-38.61
-16.50
5.91
26.66
44.15
56.48
63.07
63.87
59.58
50.82
38.23
21.75
1.64
-20.79
-43.92
-65.14
-81.53
-90.26
-90.22
-81.97
-68.52
-53.74
-36.57
-13.25
16.64
50.61
84.28
109.21
121.60
118.05
95.58
53.29
-8.57
-89.14
-185.90
-287.75
-379.37
-444.05
-470.94
-458.74
-415.65
-355.23
-292.56
-238.51
-197.22
-167.62
-145.40
-126.83
-109.67
-94.95
-79.80
-61.18
-35.77
-0.96
43.43
95.32
150.72
205.55
251.98
286.35
307.85
318.22
320.37
316.56
308.00
294.70
276.47
253.64
228.43
203.14
179.91
160.17
144.11
131.02
119.43
107.88
95.43
82.72
70.56
59.78
50.93
43.93
38.37
33.57
28.85
23.73
18.55
13.72
9.57
6.33
3.85
2.10
0.85
-0.09
-0.92
-1.53
-1.83
-1.80
-1.45
-1.09
-0.72
-0.52
-0.70
-1.48
-3.00
-5.37
-8.69
-12.02
-16.12
-21.00
-26.49
-32.30
-38.13
-43.65
-48.57
-52.66
-55.80
-58.06
-59.39
-59.90
-59.78
-59.28
-58.61
-57.98
-57.57
-57.49
-57.77
-58.26
-58.90
-59.65
-60.51
-61.46
-62.54
-63.83
-65.55
-67.62
-70.03
-72.88
-76.27
-80.27
-84.84
-89.93
-95.44
-101.43
-107.48
-113.47
-119.49
-125.74
-132.35
-139.30
-146.38
-153.30
-159.84
-165.20
-169.07
-171.41
-172.22
-171.24
-167.79
-160.49
-147.07
-130.42
-111.72
-92.47
-74.44
-59.33
-48.18
-41.00
-36.68
-33.29
-28.73
-20.71
-8.20
8.88
30.10
55.07
83.74
116.44
153.65
195.87
243.54
296.27
352.94
411.60
468.94
520.15
559.95
584.18
592.05
585.82
569.86
549.32
528.41
509.24
491.38
473.50
454.87
436.82
420.45
405.38
389.80
370.86
345.99
313.53
273.95
229.65
185.08
142.67
102.17
61.71
18.64
-28.66
-80.68
-135.96
-200.04
-267.66
-328.12
-373.40
-408.92
-443.99
-480.73
-517.78
-551.21
-576.82
-590.96
-593.84
-588.65
-564.81
-516.97
-447.55
-366.70
-285.68
-212.15
-148.99
-97.64
-58.87
-32.09
-16.06
-7.60
-2.90
1.46
7.10
14.02
20.21
23.34
22.50
17.38
8.88
-1.52
-11.86
-19.09
-19.71
-11.27
5.50
25.70
40.98
43.98
32.36
10.40
-12.74
-28.14
-32.21
-28.39
-24.83
-29.23
-43.72
-63.69
-80.46
-86.10
-77.54
-57.14
-29.29
-0.51
24.16
43.12
57.59
69.35
78.70
83.95
82.62
73.94
60.41
47.85
42.71
48.90
65.50
87.11
106.47
117.94
120.16
115.90
110.70
109.78
115.49
126.56
139.69
152.00
163.00
174.93
190.94
212.98
239.97
267.85
291.13
305.25
307.84
298.56
277.76
245.47
201.77
147.97
87.55
25.44
-33.85
-88.39
-139.11
-188.05
-235.73
-279.43
-313.80
-333.42
-336.01
-323.75
-302.37
-278.47
-257.13
-240.89
-230.35
-224.96
-223.62
-224.24
-223.37
-217.07
-202.73
-181.00
-156.19
-134.48
-120.74
-116.09
-117.47
-119.64
-118.52
-113.53
-107.65
-105.19
-108.68
-117.24
-127.34
-135.60
-141.50
-148.13
-160.08
-179.65
-204.06
-225.08
-232.27
-217.36
-177.62
-116.56
-42.04
37.12
113.62
182.66
241.86
289.99
326.50
351.60
366.74
374.60
378.14
379.30
378.09
372.88
360.88
339.19
306.15
262.29
210.49
155.27
101.39
52.26
9.61
-28.11
-65.49
-108.22
-159.99
-219.99
-282.52
-338.77
-379.87
-397.73
-389.46
-358.09
-310.82
-255.46
-197.78
-141.08
-86.97
-36.17
14.46
67.56
123.19
178.34
228.95
272.01
305.97
330.57
346.42
359.24
374.12
393.17
415.43
439.55
465.37
492.79
519.89
515.35
458.83
354.00
228.54
113.84
29.56
-17.93
-31.99
-22.01
-0.64
25.34
50.50
69.30
76.31
68.80
47.65
15.75
-21.91
-61.07
-95.74
-122.76
-143.23
-162.12
-185.03
-214.69
-249.21
-281.96
-303.58
-303.40
-276.40
-227.10
-169.10
-119.75
-93.27
-95.85
-124.41
-169.16
-216.95
-256.92
-283.28
-295.14
-294.10
-281.83
-258.94
-225.41
-182.16
-131.93
-80.44
-35.90
-6.88
0.59
-14.89
-49.94
-98.10
-152.29
-206.45
-255.78
-295.98
-322.62
-331.37
-319.36
-286.66
-236.84
-176.18
-111.66
-48.95
8.61
59.96
105.57
146.51
183.87
218.89
253.35
289.72
330.23
375.06
420.88
460.41
484.00
483.00
453.26
397.06
322.68
241.37
163.20
93.97
34.36
-18.73
-69.85
-122.65
-178.68
-236.29
-290.62
-334.48
-359.81
-359.47
-329.34
-269.62
-185.55
-87.60
11.21
98.29
165.00
209.22
236.01
254.85
274.51
298.15
320.67
333.30
328.68
304.93
266.08
219.59
171.83
124.75
75.70
18.92
-47.89
-122.11
-198.49
-272.37
-340.64
-400.91
-450.10
-484.14
-500.58
-496.01
-467.81
-416.46
-346.27
-263.22
-172.33
-76.70
31.62
142.69
234.38
287.29
297.06
272.92
230.44
185.36
148.82
125.14
110.28
99.21
89.60
82.12
78.64
80.51
87.17
95.62
101.93
101.50
93.77
82.19
71.58
65.18
63.29
63.60
62.50
56.99
44.73
26.55
5.98
-12.93
-27.83
-38.78
-45.46
-51.32
-58.67
-68.50
-79.40
-88.57
-93.22
-92.36
-87.11
-80.05
-74.63
-73.42
-77.94
-87.52
-98.97
-106.98
-105.66
-90.86
-62.30
-24.77
13.84
45.42
65.09
72.81
72.88
70.92
70.96
73.99
78.30
81.43
81.15
75.77
64.22
46.79
25.96
6.37
-6.68
-10.61
-7.28
-3.00
-5.41
-19.60
-45.16
-76.37
-104.89
-123.41
-128.19
-119.35
-100.14
-74.24
-45.79
-18.76
3.43
18.65
26.25
27.01
22.66
15.17
6.56
-1.25
-6.32
-7.12
-3.21
4.28
12.95
20.19
24.29
25.09
23.92
22.87
23.70
27.05
32.16
37.25
40.34
40.17
36.80
31.53
26.42
23.47
23.80
27.23
32.43
37.62
41.37
43.24
43.74
44.10
45.51
48.56
53.22
59.04
65.40
71.41
75.78
76.74
72.52
62.26
46.49
27.24
7.22
-11.13
-26.41
-38.35
-47.46
-54.34
-59.49
-63.24
-65.93
-67.97
-69.85
-72.12
-75.26
-79.57
-84.45
-88.26
-88.58
-83.35
-72.47
-58.62
-46.70
-41.81
-46.69
-59.91
-76.46
-90.13
-96.48
-94.55
-86.61
-76.23
-65.12
-54.15
-42.63
-29.18
-12.91
5.78
25.22
43.18
57.77
68.14
74.42
77.77
79.78
82.02
85.61
91.10
98.36
106.65
114.70
120.87
123.77
122.72
118.13
111.67
106.14
104.90
110.95
125.90
149.03
177.06
204.48
224.64
231.38
220.71
192.04
148.29
95.08
39.20
-12.94
-56.72
-90.00
-113.33
-129.50
-142.66
-156.74
-173.78
-192.83
-210.10
-220.57
-220.32
-208.51
-187.67
-162.39
-137.00
-113.69
-92.28
-71.35
-49.98
-28.98
-10.64
2.45
8.72
8.33
2.88
-5.42
-14.52
-22.88
-29.40
-33.35
-34.27
-32.09
-27.36
-21.24
-15.28
-10.96
-9.33
-10.81
-15.20
-21.88
-29.96
-38.43
-46.11
-51.87
-54.79
-54.51
-51.44
-46.82
-42.30
-39.35
-38.45
-38.81
-38.52
-35.41
-28.01
-16.30
-1.81
13.07
25.98
35.43
41.13
43.73
44.22
43.39
41.67
39.30
36.53
33.75
31.35
29.50
28.13
27.02
26.03
25.22
24.95
25.63
27.61
30.99
35.61
41.10
47.00
52.77
57.78
61.36
62.78
61.41
56.88
49.20
38.90
26.88
14.23
2.00
-9.06
-18.59
-26.67
-33.65
-40.07
-46.50
-53.38
-60.85
-68.68
-76.20
-82.36
-85.97
-86.05
-82.04
-74.03
-62.76
-49.42
-35.40
-22.10
-10.68
-1.96
3.71
6.55
7.34
7.50
8.84
13.17
21.69
34.45
50.10
66.20
79.99
89.34
93.42
92.81
89.09
83.98
78.77
73.98
69.54
65.11
60.40
55.24
49.53
43.23
36.25
28.61
20.52
12.33
4.51
-2.53
-8.63
-13.92
-18.85
-24.00
-29.84
-36.38
-42.96
-48.26
-50.68
-48.87
-42.31
-31.53
-18.02
-3.66
9.82
21.33
30.48
37.29
41.86
44.11
43.86
41.06
36.02
29.52
22.65
16.46
11.71
8.61
6.97
6.34
6.29
6.60
7.20
8.21
9.67
11.58
13.80
16.06
18.05
19.48
20.14
19.96
19.08
17.73
16.25
14.90
13.76
12.67
11.24
8.96
5.40
0.39
-5.79
-12.33
-18.02
-21.50
-21.67
-18.01
-10.80
-1.00
10.02
20.87
30.44
38.05
43.44
46.66
47.93
47.47
45.55
42.50
38.68
34.53
30.47
26.73
23.32
19.97
16.30
12.01
7.08
1.85
-3.16
-7.43
-10.76
-13.33
-15.63
-18.20
-21.46
-25.45
-29.94
-34.47
-38.58
-41.92
-44.30
-45.70
-46.28
-46.33
-46.25
-46.48
-47.43
-49.28
-51.80
-54.32
-55.86
-55.30
-51.78
-44.87
-34.79
-22.37
-8.86
4.31
15.92
25.15
31.79
36.11
38.69
40.19
41.16
41.89
42.50
42.96
43.17
43.06
42.56
41.63
40.32
38.77
37.13
35.50
33.87
32.13
30.12
27.78
25.14
22.42
19.85
17.59
15.70
14.11
12.72
11.46
10.33
9.33
8.39
7.32
5.78
3.44
0.04
-4.53
-10.23
-16.93
-24.33
-31.88
-38.69
-43.61
-45.51
-43.69
-38.19
-29.90
-20.20
-10.58
-2.17
4.46
9.21
12.25
13.84
14.22
13.62
12.33
10.66
8.92
7.35
6.12
5.36
5.16
5.51
6.36
7.61
9.14
10.92
12.90
14.92
16.60
17.34
16.48
13.63
8.96
3.19
-2.62
-7.50
-10.93
-13.03
-14.33
-15.48
-16.91
-18.71
-20.72
-22.71
-24.59
-26.42
-28.44
-30.95
-34.30
-38.73
-44.31
-50.73
-57.20
-62.59
-65.62
-65.34
-61.43
-54.34
-45.14
-35.15
-25.48
-16.85
-9.50
-3.41
1.48
5.06
7.11
7.48
6.32
4.17
2.01
0.98
2.13
6.13
13.05
22.39
33.12
44.00
53.77
61.44
66.39
68.42
67.66
64.41
58.97
51.53
42.23
31.39
19.68
8.21
-1.57
-8.29
-11.11
-10.11
-6.29
-1.35
2.96
5.37
5.38
3.29
-0.14
-4.09
-8.04
-12.02
-16.58
-22.48
-30.18
-39.38
-48.62
-55.55
-57.58
-52.94
-41.51
-25.03
-6.55
10.63
24.11
33.00
37.88
40.12
41.19
42.08
43.21
44.50
45.50
45.41
43.08
37.22
26.97
12.47
-4.84
-22.51
-37.88
-49.07
-55.61
-58.41
-59.13
-59.40
-60.25
-62.13
-65.18
-69.55
-75.51
-83.07
-91.59
-99.65
-105.32
-106.86
-103.37
-95.27
-84.14
-72.13
-61.20
-52.51
-46.25
-41.75
-37.92
-33.57
-27.74
-19.90
-9.97
1.62
14.14
26.91
39.71
53.03
67.90
85.34
105.68
128.12
150.84
171.60
188.52
200.64
207.88
210.64
209.29
204.00
194.94
182.87
169.39
156.70
146.87
141.04
139.17
140.21
142.66
145.01
145.82
143.64
137.08
125.09
107.60
85.60
60.92
35.38
10.25
-13.88
-36.60
-57.10
-73.96
-85.81
-92.14
-94.13
-94.54
-96.83
-103.93
-117.19
-136.02
-158.27
-181.05
-201.68
-218.22
-229.66
-235.68
-236.33
-231.81
-222.44
-208.76
-191.52
-171.57
-149.85
-127.44
-105.62
-85.74
-68.88
-55.40
-44.72
-35.68
-27.12
-18.51
-9.93
-1.45
7.57
18.71
33.68
53.16
75.80
98.43
117.34
129.92
135.64
135.76
131.95
124.95
114.06
97.63
74.47
45.07
12.00
-20.77
-49.25
-70.77
-84.58
-91.63
-93.77
-92.77
-89.80
-85.45
-80.05
-74.08
-68.11
-62.48
-56.90
-50.36
-41.43
-29.03
-13.10
5.18
23.70
40.15
52.74
60.64
63.82
62.71
57.85
49.70
38.65
25.15
9.69
-7.32
-25.71
-45.50
-66.67
-88.86
-111.04
-131.64
-148.90
-161.48
-168.86
-171.46
-170.36
-166.86
-161.93
-155.89
-148.39
-138.56
-125.26
-107.51
-84.73
-57.04
-25.26
9.09
44.06
77.63
108.11
134.39
155.93
172.68
184.88
192.87
197.02
197.76
195.57
191.02
184.72
177.28
169.21
160.81
152.18
143.20
133.65
123.22
111.72
99.05
85.35
70.95
56.33
42.06
28.62
16.28
5.02
-5.43
-15.44
-25.26
-34.84
-43.88
-51.94
-58.80
-64.58
-69.64
-74.33
-78.64
-81.99
-83.45
-82.12
-77.58
-70.20
-60.97
-51.17
-41.87
-33.67
-26.67
-20.71
-15.70
-11.78
-9.19
-8.12
-8.40
-9.52
-10.76
-11.45
-11.20
-9.99
-8.07
-5.81
-3.55
-1.48
0.42
2.24
4.13
6.14
8.22
10.10
11.55
12.36
12.56
12.34
11.99
11.67
11.31
10.62
9.24
6.87
3.40
-1.09
-6.29
-11.63
-16.32
-19.41
-20.06
-17.72
-12.40
-4.75
4.12
12.98
20.76
26.75
30.70
32.66
32.93
31.90
30.00
27.65
25.22
22.97
21.04
19.46
18.14
17.01
15.99
15.04
14.18
13.39
12.61
11.72
10.50
8.75
6.32
3.20
-0.45
-4.34
-8.13
-11.54
-14.40
-16.78
-18.93
-21.24
-24.08
-27.66
-31.85
-36.12
-39.61
-41.40
-40.77
-37.50
-31.96
-25.03
-17.78
-11.20
-5.90
-2.12
0.24
1.40
1.62
1.16
0.25
-0.89
-2.08
-3.24
-4.37
-5.51
-6.63
-7.63
-8.29
-8.44
-8.02
-7.20
-6.27
-5.57
-5.34
-5.65
-6.38
-7.33
-8.28
-9.06
-9.60
-9.87
-9.92
-9.89
-10.07
-10.80
-12.45
-15.18
-18.81
-22.69
-25.81
-27.12
-25.83
-21.79
-15.46
-7.86
-0.08
7.04
13.08
18.03
21.93
24.77
26.35
26.38
24.78
21.81
18.07
14.25
10.87
8.02
5.45
2.71
-0.55
-4.39
-8.66
-13.15
-17.74
-22.57
-27.95
-34.14
-41.25
-49.21
-57.78
-66.69
-75.79
-85.06
-94.49
-103.99
-113.17
-121.34
-127.42
-130.05
-127.80
-119.46
-104.47
-83.17
-56.92
-27.81
1.71
29.46
53.85
74.01
89.66
100.92
108.00
111.19
110.90
107.64
102.16
95.25
87.60
79.68
71.70
63.65
55.44
46.98
38.24
29.27
20.15
10.93
1.69
-7.58
-16.86
-26.17
-35.46
-44.70
-53.83
-62.73
-71.17
-78.74
-84.70
-87.98
-87.32
-81.54
-70.00
-53.00
-31.92
-9.11
12.73
31.17
44.76
53.23
57.35
58.46
57.94
56.74
55.35
53.89
52.44
51.17
50.40
50.38
51.10
52.21
53.14
53.32
52.46
50.63
48.20
45.58
42.97
40.28
37.23
33.60
29.45
25.07
20.89
17.19
13.95
10.84
7.42
3.28
-1.68
-7.26
-12.97
-18.08
-21.82
-23.48
-22.65
-19.37
-14.11
-7.74
-1.18
4.79
9.68
13.29
15.55
16.46
16.07
14.51
12.05
9.06
5.95
3.03
0.48
-1.69
-3.56
-5.22
-6.72
-8.06
-9.21
-10.12
-10.82
-11.47
-12.28
-13.47
-15.13
-17.16
-19.27
-21.11
-22.46
-23.36
-24.08
-25.08
-26.73
-29.19
-32.29
-35.49
-38.06
-39.20
-38.28
-35.03
-29.59
-22.55
-14.71
-6.91
0.16
6.02
10.45
13.41
15.03
15.52
15.12
14.10
12.71
11.14
9.56
8.12
6.94
6.09
5.59
5.38
5.37
5.47
5.58
5.57
5.29
4.57
3.31
1.52
-0.62
-2.79
-4.77
-6.43
-7.83
-9.25
-11.02
-13.47
-16.71
-20.61
-24.69
-28.23
-30.42
-30.59
-28.43
-24.09
-18.10
-11.22
-4.19
2.37
8.07
12.66
16.04
18.15
19.00
18.66
17.32
15.28
12.91
10.65
8.87
7.79
7.44
7.75
8.59
9.85
11.52
13.57
15.89
18.19
20.07
21.16
21.32
20.70
19.75
18.91
18.48
18.43
18.41
17.91
16.44
13.67
9.59
4.52
-0.91
-5.84
-9.37
-10.81
-9.93
-7.01
-2.85
1.58
5.37
7.96
9.20
9.20
8.18
6.31
3.61
0.11
-4.04
-8.49
-12.75
-16.43
-19.42
-21.96
-24.54
-27.59
-31.27
-35.34
-39.33
-42.67
-44.91
-45.59
-44.27
-40.51
-34.09
-25.32
-15.17
-4.98
4.08
11.54
17.78
23.61
29.61
35.50
40.13
41.98
40.08
34.61
27.09
19.76
14.74
13.24
15.27
19.83
25.50
31.02
35.63
39.06
41.30
42.35
42.17
40.76
38.31
35.25
32.12
29.30
26.85
24.45
21.67
18.24
14.25
10.16
6.60
4.10
2.81
2.51
2.63
2.49
1.56
-0.41
-3.29
-6.72
-10.22
-13.38
-15.99
-18.02
-19.63
-21.15
-22.96
-25.43
-28.80
-33.01
-37.60
-41.80
-44.64
-45.30
-43.41
-39.23
-33.64
-27.90
-23.32
-20.87
-21.05
-23.78
-28.55
-34.61
-41.17
-47.61
-53.54
-58.73
-63.09
-66.61
-69.29
-71.18
-72.31
-72.64
-72.05
-70.36
-67.37
-63.04
-57.52
-51.14
-44.35
-37.47
-30.57
-23.50
-15.90
-7.49
1.87
11.94
22.20
31.99
40.65
47.77
53.28
57.53
61.27
65.45
70.94
78.22
87.17
96.95
106.34
114.03
119.08
121.20
120.64
117.96
113.76
108.39
101.95
94.43
85.82
76.22
65.87
55.09
44.19
33.50
23.28
13.74
5.06
-2.67
-9.43
-15.26
-20.24
-24.53
-28.29
-31.69
-34.89
-37.94
-40.79
-43.35
-45.51
-47.32
-48.98
-50.86
-53.33
-56.57
-60.35
-63.97
-66.38
-66.48
-63.50
-57.27
-48.34
-37.73
-26.67
-16.20
-6.97
0.79
7.12
12.11
15.81
18.21
19.31
19.28
18.43
17.21
16.02
15.07
14.36
13.72
13.03
12.23
11.39
10.64
10.01
9.45
8.85
8.21
7.62
7.20
6.93
6.54
5.55
3.49
0.11
-4.52
-10.00
-15.73
-21.10
-25.49
-28.38
-29.30
-27.94
-24.31
-18.76
-11.98
-4.89
1.68
7.06
10.92
13.21
14.07
13.74
12.47
10.46
7.88
4.87
1.56
-1.87
-5.22
-8.32
-11.13
-13.73
-16.34
-19.21
-22.57
-26.53
-31.10
-36.29
-42.12
-48.68
-56.06
-64.15
-72.60
-80.83
-88.27
-94.66
-100.26
-105.83
-112.31
-120.38
-129.99
-140.29
-149.89
-157.35
-161.78
-163.16
-162.21
-160.05
-157.64
-155.45
-153.35
-150.82
-147.21
-141.94
-134.50
-124.29
-110.69
-93.38
-72.85
-50.86
-30.25
-14.23
-5.33
-4.56
-11.28
-23.83
-40.49
-60.11
-81.84
-104.39
-125.23
-140.57
-146.43
-140.23
-122.15
-95.21
-64.11
-33.39
-5.86
18.06
39.72
61.13
83.89
108.89
136.44
166.48
198.43
230.67
260.29
283.52
297.04
299.48
292.27
279.20
264.74
252.03
241.70
232.18
221.13
207.01
189.86
170.97
151.80
133.17
115.17
97.78
81.56
67.84
58.23
53.77
54.10
57.43
61.24
63.25
62.34
58.81
54.01
49.58
46.56
44.96
43.86
41.95
38.15
32.19
24.58
16.32
8.44
1.65
-3.77
-7.72
-10.11
-10.70
-9.20
-5.51
0.13
6.99
13.99
19.94
23.81
24.95
23.23
19.14
13.88
9.34
7.77
11.25
20.87
36.22
55.31
75.10
92.54
105.55
113.62
117.62
119.21
120.02
121.01
122.28
123.35
123.67
123.18
122.62
123.42
127.18
134.94
146.60
160.67
174.66
185.83
191.82
191.11
183.08
167.82
146.02
119.03
88.87
58.22
29.98
6.65
-10.35
-20.92
-26.11
-27.42
-26.10
-22.69
-17.08
-9.03
1.26
12.78
23.89
32.93
38.77
41.17
40.59
37.86
33.74
28.83
23.66
18.70
14.23
10.15
5.90
0.70
-6.05
-14.36
-23.73
-33.50
-43.35
-53.42
-64.19
-75.89
-88.22
-100.33
-111.23
-120.23
-127.17
-132.42
-136.58
-140.16
-143.45
-146.45
-148.95
-150.55
-150.73
-149.00
-145.06
-138.88
-130.82
-121.51
-111.77
-102.41
-94.12
-87.37
-82.38
-79.08
-77.21
-76.45
-76.46
-76.95
-77.59
-78.03
-77.90
-76.89
-74.84
-71.86
-68.25
-64.42
-60.76
-57.45
-54.53
-51.88
-49.37
-46.92
-44.49
-42.13
-39.89
-37.81
-35.88
-34.09
-32.39
-30.74
-29.12
-27.56
-26.19
-25.18
-24.76
-25.18
-26.60
-29.06
-32.31
-35.81
-38.71
-40.04
-38.96
-35.07
-28.51
-19.97
-10.43
-0.96
7.61
14.71
20.07
23.61
25.43
25.72
24.74
22.82
20.28
17.52
14.85
12.55
10.69
9.14
7.54
5.59
3.12
0.33
-2.28
-4.20
-5.12
-5.20
-4.97
-5.18
-6.40
-8.89
-12.57
-17.09
-22.12
-27.39
-32.80
-38.34
-44.08
-50.14
-56.74
-64.07
-72.25
-81.13
-90.17
-98.51
-105.15
-109.37
-110.89
-110.03
-107.52
-104.30
-101.23
-98.97
-98.01
-98.70
-101.33
-106.10
-113.05
-122.07
-132.75
-144.50
-156.57
-168.15
-178.47
-186.89
-193.04
-196.85
-198.40
-197.95
-195.68
-191.61
-185.43
-176.57
-164.52
-149.20
-131.50
-113.46
-97.88
-87.55
-84.19
-87.58
-95.38
-103.81
-108.66
-106.69
-96.44
-78.47
-54.93
-28.71
-2.49
21.98
44.16
64.62
84.53
105.18
127.75
153.16
181.70
212.71
244.04
272.10
292.84
303.39
303.64
296.83
288.26
282.93
283.05
287.06
290.73
289.62
281.58
267.63
251.14
235.70
223.26
213.53
204.62
194.53
182.20
167.85
152.49
137.06
121.94
106.89
91.47
75.61
59.82
45.17
32.77
23.24
16.30
10.75
4.96
-2.41
-11.67
-21.85
-31.01
-36.96
-38.20
-34.50
-27.00
-17.74
-8.89
-2.06
2.09
3.70
3.36
1.72
-0.74
-3.69
-6.70
-9.20
-10.49
-10.00
-7.54
-3.47
1.44
6.26
10.28
13.22
15.18
16.50
17.46
18.13
18.36
17.96
16.80
14.94
12.59
10.01
7.42
4.94
2.62
0.49
-1.46
-3.22
-4.90
-6.61
-8.46
-10.38
-12.06
-13.04
-12.82
-11.06
-7.78
-3.36
1.62
6.53
11.01
14.95
18.46
21.65
24.46
26.61
27.77
27.75
26.68
24.96
23.06
21.31
19.70
17.97
15.85
13.23
10.27
7.30
4.61
2.25
0.07
-2.18
-4.64
-7.33
-10.09
-12.76
-15.29
-17.74
-20.22
-22.83
-25.62
-28.58
-31.72
-35.09
-38.83
-43.03
-47.61
-52.19
-56.07
-58.32
-58.06
-54.71
-48.19
-38.94
-27.82
-15.87
-4.06
6.76
15.98
23.16
28.07
30.66
31.12
29.85
27.38
24.31
21.20
18.49
16.47
15.24
14.73
14.76
15.08
15.47
15.79
15.97
15.99
15.76
15.09
13.69
11.27
7.71
3.23
-1.72
-6.57
-10.83
-14.42
-17.60
-20.94
-25.04
-30.31
-36.83
-44.28
-52.01
-59.07
-64.37
-66.88
-65.85
-61.13
-53.22
-43.21
-32.50
-22.34
-13.57
-6.47
-0.82
3.76
7.64
10.97
13.76
16.02
17.84
19.43
20.91
22.32
23.46
24.08
24.03
23.39
22.47
21.61
21.03
20.67
20.23
19.28
17.45
14.51
10.36
5.13
-0.94
-7.37
-13.59
-19.07
-23.47
-26.81
-29.37
-31.57
-33.74
-35.98
-38.10
-39.69
-40.26
-39.43
-36.98
-32.93
-27.42
-20.66
-12.93
-4.48
4.38
13.35
22.13
30.47
38.31
45.80
53.29
61.23
69.99
79.73
90.36
101.56
112.90
123.94
134.20
143.21
150.43
155.32
157.34
156.14
151.70
144.27
134.37
122.61
109.49
95.40
80.48
64.67
47.66
29.08
8.54
-14.03
-38.22
-63.13
-87.46
-109.99
-129.88
-146.80
-160.72
-171.44
-178.30
-180.25
-176.48
-167.02
-153.03
-136.58
-119.80
-104.14
-90.00
-77.11
-65.28
-55.12
-48.00
-45.49
-48.34
-55.86
-66.01
-76.22
-84.41
-89.71
-92.61
-94.38
-96.37
-99.32
-103.17
-107.16
-110.17
-111.06
-108.83
-102.73
-92.35
-77.66
-59.00
-37.10
-12.96
12.19
36.95
59.87
79.58
94.98
105.35
110.49
110.67
106.48
98.72
88.31
76.28
63.83
52.30
43.01
36.94
34.46
35.18
38.02
41.58
44.54
45.95
45.40
43.00
39.13
34.39
29.41
24.87
21.42
19.58
19.58
21.33
24.39
28.11
31.84
35.06
37.48
39.00
39.66
39.53
38.62
36.89
34.22
30.49
25.65
19.84
13.47
7.13
1.51
-2.80
-5.56
-6.83
-7.00
-6.64
-6.37
-6.77
-8.27
-11.06
-14.93
-19.26
-22.97
-24.88
-23.97
-19.91
-13.13
-4.73
3.92
11.58
17.47
21.35
23.35
23.78
22.90
20.91
18.00
14.47
10.78
7.49
5.11
3.89
3.75
4.33
5.10
5.62
5.65
5.23
4.58
3.94
3.42
2.94
2.33
1.36
-0.12
-2.11
-4.49
-7.08
-9.74
-12.37
-15.00
-17.69
-20.52
-23.51
-26.74
-30.27
-34.16
-38.34
-42.47
-45.90
-47.74
-47.17
-43.74
-37.54
-29.10
-19.23
-8.63
2.09
12.46
21.90
29.71
35.18
37.84
37.73
35.47
32.01
28.37
25.30
23.17
21.92
21.26
20.81
20.21
19.24
17.77
15.77
13.24
10.20
6.63
2.61
-1.78
-6.33
-10.80
-14.94
-18.60
-21.75
-24.51
-27.10
-29.68
-32.35
-35.20
-38.21
-41.37
-44.51
-47.19
-48.69
-48.09
-44.59
-37.92
-28.50
-17.42
-6.10
4.13
12.40
18.37
22.11
23.89
24.00
22.67
20.13
16.72
12.88
9.16
6.02
3.83
2.75
2.71
3.34
4.24
4.94
5.14
4.77
4.00
3.10
2.30
1.69
1.18
0.64
-0.07
-0.96
-1.96
-3.03
-4.20
-5.60
-7.38
-9.68
-12.55
-16.05
-20.22
-25.02
-30.09
-34.65
-37.50
-37.31
-33.07
-24.56
-12.52
1.50
15.62
28.10
37.75
44.09
47.18
47.42
45.33
41.40
36.16
30.17
24.07
18.47
13.86
10.50
8.36
7.21
6.74
6.78
7.33
8.56
10.64
13.59
17.16
20.94
24.39
27.03
28.57
28.91
28.13
26.37
23.80
20.44
16.23
11.08
4.87
-2.42
-10.69
-19.65
-28.77
-37.33
-44.48
-49.42
-51.55
-50.68
-47.07
-41.41
-34.65
-27.82
-21.80
-17.15
-14.11
-12.61
-12.39
-13.09
-14.33
-15.81
-17.23
-18.31
-18.81
-18.50
-17.26
-15.10
-12.17
-8.74
-5.10
-1.50
1.90
4.99
7.75
10.11
12.01
13.33
13.97
13.88
13.05
11.58
9.60
7.26
4.76
2.25
-0.13
-2.35
-4.47
-6.65
-9.14
-12.20
-15.92
-20.22
-24.71
-28.72
-31.35
-31.79
-29.48
-24.38
-17.03
-8.38
0.40
8.30
14.63
19.08
21.69
22.64
22.18
20.58
18.18
15.42
12.84
10.95
10.14
10.55
12.00
14.12
16.39
18.38
19.78
20.54
20.77
20.66
20.31
19.75
18.83
17.38
15.29
12.58
9.37
5.86
2.26
-1.28
-4.62
-7.65
-10.30
-12.62
-14.80
-17.20
-20.17
-23.97
-28.54
-33.40
-37.78
-40.66
-41.22
-39.04
-34.30
-27.73
-20.40
-13.44
-7.71
-3.70
-1.47
-0.80
-1.35
-2.76
-4.72
-6.91
-9.02
-10.67
-11.50
-11.16
-9.44
-6.32
-2.04
3.06
8.44
13.62
18.13
21.59
23.77
24.59
24.13
22.61
20.31
17.50
14.34
10.91
7.22
3.28
-0.79
-4.81
-8.60
-12.01
-15.00
-17.67
-20.21
-22.92
-26.09
-29.87
-34.17
-38.45
-41.79
-43.08
-41.37
-36.25
-28.10
-18.06
-7.64
1.77
9.19
14.30
17.20
18.30
18.02
16.77
15.01
13.24
11.97
11.62
12.42
14.32
17.06
20.22
23.37
26.16
28.29
29.69
30.39
30.56
30.37
29.96
29.38
28.66
27.84
26.98
26.11
25.14
23.93
22.31
20.30
18.17
16.36
15.22
14.80
14.64
13.94
11.81
7.58
1.11
-7.17
-16.31
-25.00
-31.87
-35.80
-36.17
-33.13
-27.47
-20.46
-13.46
-7.60
-3.57
-1.58
-1.43
-2.72
-4.97
-7.71
-10.56
-13.18
-15.33
-16.85
-17.66
-17.74
-17.18
-16.17
-14.92
-13.61
-12.34
-11.14
-9.98
-8.93
-8.17
-7.93
-8.41
-9.58
-11.22
-12.89
-14.18
-14.85
-14.97
-14.89
-14.98
-15.49
-16.32
-17.13
-17.37
-16.61
-14.74
-12.02
-9.10
-6.92
-6.37
-8.17
-12.40
-18.51
-25.17
-30.70
-33.47
-32.39
-27.25
-18.72
-8.03
3.34
14.06
23.16
30.13
34.88
37.63
38.81
38.96
38.52
37.81
36.99
36.12
35.27
34.52
33.96
33.62
33.44
33.28
33.04
32.67
32.14
31.43
30.46
29.07
27.16
24.67
21.64
18.17
14.36
10.23
5.76
0.94
-4.13
-9.23
-14.04
-18.26
-21.71
-24.36
-26.39
-28.16
-30.10
-32.61
-35.86
-39.62
-43.09
-45.06
-44.19
-39.42
-30.51
-18.10
-3.53
11.54
25.65
37.80
47.44
54.37
58.50
59.83
58.52
54.91
49.59
43.28
36.70
30.45
24.94
20.39
16.87
14.32
12.55
11.29
10.20
9.01
7.55
5.82
3.92
2.00
0.13
-1.75
-3.83
-6.29
-9.24
-12.65
-16.32
-19.97
-23.32
-26.17
-28.43
-30.16
-31.57
-33.06
-35.06
-37.92
-41.67
-45.90
-49.75
-52.10
-51.93
-48.64
-42.33
-33.80
-24.29
-15.12
-7.31
-1.35
2.77
5.42
7.03
7.95
8.31
8.17
7.58
6.69
5.80
5.22
5.20
5.81
6.95
8.44
10.07
11.72
13.38
15.07
16.76
18.25
19.21
19.24
18.07
15.64
12.23
8.35
4.57
1.37
-1.06
-2.87
-4.42
-6.19
-8.58
-11.83
-16.04
-21.16
-26.88
-32.60
-37.36
-40.00
-39.47
-35.27
-27.67
-17.76
-7.13
2.64
10.44
15.76
18.70
19.71
19.30
17.89
15.76
13.16
10.29
7.37
4.66
2.44
0.91
0.21
0.34
1.16
2.46
4.01
5.61
7.11
8.39
9.32
9.71
9.42
8.33
6.43
3.79
0.56
-3.02
-6.67
-10.07
-13.00
-15.32
-17.13
-18.75
-20.64
-23.30
-27.05
-31.85
-37.13
-41.83
-44.62
-44.25
-40.04
-32.07
-21.31
-9.28
2.42
12.48
20.20
25.45
28.45
29.58
29.23
27.72
25.36
22.47
19.40
16.48
13.98
12.10
10.91
10.34
10.26
10.51
10.92
11.33
11.64
11.76
11.56
10.94
9.79
8.05
5.67
2.69
-0.74
-4.37
-7.92
-11.09
-13.70
-15.79
-17.61
-19.63
-22.37
-26.25
-31.32
-37.10
-42.62
-46.50
-47.46
-44.63
-37.93
-28.11
-16.51
-4.67
6.14
15.12
21.99
26.79
29.68
30.72
29.89
27.24
22.98
17.60
11.79
6.35
1.93
-1.07
-2.56
-2.67
-1.66
0.16
2.53
5.26
8.24
11.41
14.78
18.28
21.70
24.61
26.38
26.48
24.57
20.82
15.76
10.10
4.48
-0.81
-5.83
-10.97
-16.71
-23.48
-31.46
-40.41
-49.60
-57.76
-63.32
-64.77
-61.19
-52.64
-40.24
-25.86
-11.51
1.16
11.22
18.43
23.08
25.56
26.30
25.66
24.08
22.05
20.14
18.88
18.53
19.09
20.29
21.75
23.13
24.23
25.01
25.50
25.70
25.47
24.58
22.78
19.89
15.98
11.29
6.25
1.30
-3.13
-6.75
-9.43
-11.18
-12.13
-12.56
-12.86
-13.54
-15.11
-18.02
-22.39
-27.88
-33.67
-38.47
-40.92
-39.94
-35.09
-26.75
-16.02
-4.33
6.91
16.66
24.33
29.75
33.06
34.58
34.80
34.21
33.29
32.34
31.46
30.58
29.64
28.68
27.86
27.43
27.48
27.93
28.53
28.96
28.95
28.37
27.20
25.42
23.04
20.07
16.60
12.79
8.90
5.15
1.65
-1.54
-4.51
-7.29
-9.92
-12.43
-14.86
-17.37
-20.17
-23.52
-27.58
-32.30
-37.20
-41.41
-43.84
-43.48
-39.77
-32.81
-23.43
-12.92
-2.66
6.23
13.09
17.78
20.47
21.55
21.40
20.40
18.89
17.19
15.58
14.33
13.57
13.37
13.64
14.20
14.85
15.43
15.84
16.07
16.12
15.97
15.55
14.78
13.58
11.94
9.94
7.68
5.25
2.67
-0.13
-3.18
-6.42
-9.68
-12.66
-15.11
-16.95
-18.33
-19.64
-21.38
-23.99
-27.73
-32.48
-37.69
-42.39
-45.36
-45.44
-41.89
-34.66
-24.48
-12.72
-0.92
9.58
17.97
23.99
27.81
29.78
30.24
29.50
27.79
25.40
22.67
20.03
17.85
16.35
15.52
15.17
15.04
14.95
14.86
14.88
15.10
15.41
15.52
15.05
13.74
11.60
8.96
6.28
3.88
1.87
0.06
-1.81
-3.94
-6.31
-8.77
-11.08
-13.14
-14.99
-16.82
-18.91
-21.54
-24.88
-29.02
-33.75
-38.57
-42.61
-44.79
-44.08
-39.89
-32.26
-22.01
-10.48
0.84
10.68
18.28
23.40
26.21
27.09
26.50
24.81
22.36
19.47
16.44
13.56
11.11
9.33
8.34
8.16
8.71
9.78
11.09
12.34
13.22
13.51
13.07
11.90
10.09
7.83
5.30
2.64
-0.08
-2.86
-5.77
-8.85
-12.11
-15.49
-18.84
-22.02
-24.88
-27.42
-29.76
-32.19
-35.10
-38.84
-43.51
-48.78
-53.72
-56.98
-57.07
-52.93
-44.32
-32.07
-17.80
-3.41
9.50
20.09
28.29
34.56
39.49
43.46
46.56
48.62
49.46
49.04
47.54
45.35
42.87
40.44
38.23
36.26
34.46
32.77
31.18
29.64
28.05
26.19
23.81
20.75
17.08
13.09
9.23
5.86
3.15
1.01
-0.75
-2.25
-3.45
-4.11
-4.00
-3.02
-1.32
0.68
2.44
3.41
3.19
1.59
-1.22
-4.66
-7.76
-9.41
-8.61
-4.91
1.44
9.49
17.92
25.44
31.09
34.40
35.34
34.19
31.37
27.38
22.75
17.93
13.30
9.08
5.45
2.53
0.54
-0.30
0.14
1.79
4.32
7.15
9.67
11.39
12.01
11.43
9.71
7.01
3.57
-0.32
-4.37
-8.35
-12.12
-15.70
-19.15
-22.45
-25.50
-28.05
-29.86
-30.86
-31.22
-31.42
-32.09
-33.84
-37.02
-41.49
-46.50
-50.80
-52.94
-51.74
-46.69
-38.21
-27.51
-16.17
-5.64
3.09
9.66
14.13
16.84
18.14
18.34
17.78
16.76
15.62
14.63
13.97
13.68
13.65
13.74
13.82
13.82
13.74
13.63
13.48
13.15
12.40
10.95
8.66
5.64
2.22
-1.16
-4.18
-6.75
-9.00
-11.19
-13.47
-15.91
-18.41
-20.86
-23.22
-25.62
-28.21
-31.22
-34.88
-39.33
-44.65
-50.62
-56.63
-61.64
-64.27
-63.29
-58.02
-48.71
-36.49
-23.12
-10.33
0.60
9.12
15.32
19.63
22.51
24.18
24.70
24.06
22.36
19.89
17.12
14.56
12.62
11.48
11.12
11.36
11.87
12.30
12.37
11.89
10.84
9.35
7.58
5.69
3.69
1.40
-1.40
-4.98
-9.44
-14.68
-20.28
-25.57
-29.70
-31.96
-32.00
-30.10
-27.11
-24.27
-22.79
-23.42
-26.12
-30.07
-33.86
-35.91
-34.87
-30.01
-21.41
-9.93
3.02
15.81
27.00
35.67
41.45
44.45
45.07
43.75
40.99
37.19
32.79
28.22
23.85
19.94
16.62
13.87
11.65
9.90
8.55
7.54
6.78
6.12
5.39
4.47
3.29
1.86
0.24
-1.58
-3.66
-6.10
-8.96
-12.20
-15.69
-19.21
-22.58
-25.65
-28.42
-30.98
-33.50
-36.17
-39.07
-42.06
-44.58
-45.69
-44.29
-39.47
-30.97
-19.39
-6.08
7.30
19.27
28.90
35.96
40.67
43.43
44.59
44.37
42.94
40.57
37.64
34.65
32.09
30.33
29.48
29.39
29.74
30.16
30.38
30.29
29.95
29.45
28.82
27.96
26.63
24.57
21.52
17.45
12.47
6.96
1.40
-3.74
-8.16
-11.82
-14.93
-17.90
-21.13
-24.95
-29.54
-34.76
-40.18
-44.95
-47.94
-48.00
-44.36
-36.98
-26.66
-14.80
-2.96
7.65
16.35
23.02
27.81
30.87
32.30
32.19
30.76
28.45
25.77
23.15
20.84
18.86
17.17
15.70
14.51
13.58
12.89
12.26
11.46
10.31
8.77
6.94
4.97
2.99
1.00
-1.16
-3.65
-6.56
-9.82
-13.20
-16.40
-19.14
-21.24
-22.68
-23.56
-24.13
-24.73
-25.79
-27.77
-30.90
-34.98
-39.26
-42.46
-43.19
-40.48
-34.21
-25.16
-14.80
-4.73
3.81
10.22
14.49
16.96
18.02
17.99
17.02
15.21
12.79
10.15
7.88
6.63
6.90
8.88
12.29
16.54
20.86
24.62
27.50
29.48
30.75
31.47
31.65
31.15
29.78
27.41
24.12
20.20
16.04
12.03
8.37
5.09
2.01
-1.13
-4.61
-8.63
-13.36
-18.86
-25.05
-31.51
-37.43
-41.66
-43.00
-40.70
-34.81
-26.28
-16.71
-7.83
-0.87
3.74
6.26
7.31
7.45
6.91
5.64
3.50
0.53
-2.97
-6.45
-9.34
-11.13
-11.59
-10.82
-9.20
-7.42
-6.23
-6.30
-7.89
-10.81
-14.35
-17.58
-19.70
-20.27
-19.36
-17.58
-15.95
-15.72
-18.01
-23.26
-30.86
-39.05
-45.36
-47.50
-44.30
-36.32
-25.56
-14.75
-6.19
-0.99
1.04
0.92
-0.19
-1.56
-3.04
-4.84
-7.26
-10.32
-13.72
-16.90
-19.20
-20.18
-19.72
-18.03
-15.46
-12.28
-8.41
-3.45
3.11
11.48
21.35
31.79
41.63
49.83
55.97
60.27
63.39
66.03
68.53
70.78
72.30
72.57
71.27
68.37
64.09
58.69
52.47
45.62
38.29
30.64
22.92
15.40
8.39
2.05
-3.70
-9.15
-14.69
-20.49
-26.22
-31.01
-33.60
-32.88
-28.31
-20.25
-9.85
1.33
11.77
20.46
27.00
31.47
34.16
35.41
35.49
34.62
33.01
30.98
28.88
27.02
25.64
24.78
24.28
23.90
23.40
22.61
21.46
19.90
17.85
15.16
11.73
7.57
2.93
-1.74
-5.91
-9.20
-11.62
-13.49
-15.33
-17.65
-20.67
-24.30
-28.21
-31.97
-35.28
-38.12
-40.65
-43.22
-46.20
-49.78
-53.84
-57.81
-60.73
-61.41
-58.84
-52.59
-42.99
-31.18
-18.70
-7.09
2.54
9.73
14.59
17.61
19.30
20.05
20.07
19.40
18.16
16.49
14.68
13.05
11.91
11.45
11.68
12.48
13.61
14.74
15.57
15.85
15.47
14.51
13.11
11.49
9.70
7.62
5.00
1.56
-2.79
-7.90
-13.41
-18.88
-23.91
-28.19
-31.46
-33.46
-33.96
-32.86
-30.36
-26.91
-22.96
-18.54
-12.99
-5.07
6.58
22.69
42.91
65.83
89.60
112.70
134.58
155.64
176.60
197.83
218.82
238.21
254.35
265.90
272.23
273.47
270.21
263.21
253.11
240.43
225.67
209.36
192.16
174.76
157.79
141.66
126.44
111.84
97.48
83.00
68.36
53.79
39.59
25.85
12.12
-2.47
-19.01
-38.35
-60.78
-85.90
-112.72
-140.09
-166.90
-192.38
-216.09
-237.82
-257.39
-274.35
-287.96
-297.22
-301.16
-299.22
-291.50
-278.82
-262.55
-244.16
-224.94
-205.76
-187.04
-169.07
-152.12
-136.59
-122.95
-111.56
-102.42
-95.16
-89.06
-83.36
-77.43
-70.84
-63.41
-55.09
-45.89
-35.96
-25.65
-15.47
-6.02
2.27
9.29
15.23
20.44
25.11
29.14
32.13
33.60
33.30
31.37
28.31
24.80
21.51
18.92
17.16
16.04
15.01
13.35
10.40
5.91
0.25
-5.59
-10.29
-12.68
-12.18
-8.96
-3.84
2.09
7.81
12.57
15.99
17.97
18.61
18.15
16.90
15.20
13.43
11.89
10.88
10.59
11.12
12.46
14.43
16.74
19.05
20.99
22.26
22.60
21.85
19.92
16.86
12.90
8.49
4.15
0.36
-2.68
-5.10
-7.38
-10.15
-13.89
-18.80
-24.76
-31.42
-38.37
-45.15
-51.21
-55.77
-57.89
-56.66
-51.55
-42.74
-31.22
-18.56
-6.49
3.58
10.88
15.20
16.79
16.02
13.32
9.13
4.03
-1.29
-6.00
-9.33
-10.79
-10.26
-8.01
-4.60
-0.63
3.35
6.95
9.86
11.85
12.70
12.21
10.40
7.50
3.97
0.36
-2.94
-5.75
-8.20
-10.56
-13.14
-16.17
-19.82
-24.13
-28.94
-33.77
-37.79
-39.90
-39.08
-34.78
-27.14
-17.08
-5.93
4.95
14.48
22.09
27.67
31.33
33.32
33.87
33.22
31.64
29.48
27.15
25.09
23.62
22.86
22.72
22.93
23.23
23.42
23.49
23.52
23.54
23.44
22.91
21.62
19.30
15.99
11.95
7.66
3.55
-0.13
-3.34
-6.28
-9.31
-12.81
-17.08
-22.18
-27.73
-32.91
-36.57
-37.53
-35.06
-29.12
-20.48
-10.44
-0.41
8.57
16.02
21.92
26.44
29.69
31.67
32.26
31.52
29.73
27.42
25.19
23.56
22.78
22.83
23.45
24.33
25.25
26.11
26.90
27.59
28.03
27.96
27.13
25.39
22.83
19.69
16.26
12.68
8.94
4.91
0.48
-4.37
-9.56
-14.94
-20.36
-25.54
-29.95
-32.84
-33.37
-30.90
-25.32
-17.16
-7.45
2.62
12.05
20.25
26.99
32.21
35.80
37.58
37.36
35.16
31.31
26.51
21.62
17.36
14.23
12.28
11.27
10.82
10.56
10.23
9.68
8.80
7.50
5.65
3.18
0.07
-3.51
-7.28
-10.88
-14.08
-16.78
-19.10
-21.34
-23.79
-26.65
-29.95
-33.54
-37.12
-40.21
-42.19
-42.27
-39.82
-34.49
-26.53
-16.72
-6.23
3.73
12.27
18.92
23.72
26.95
28.95
29.95
30.11
29.49
28.18
26.34
24.16
21.83
19.53
17.43
15.61
14.21
13.27
12.80
12.67
12.57
12.14
11.03
9.03
6.16
2.60
-1.32
-5.24
-8.82
-11.85
-14.27
-16.26
-18.18
-20.49
-23.57
-27.54
-32.16
-36.78
-40.48
-42.27
-41.36
-37.41
-30.60
-21.71
-11.79
-2.00
6.71
13.71
18.79
22.08
23.90
24.62
24.58
24.04
23.17
22.11
20.99
19.94
19.10
18.52
18.15
17.83
17.36
16.63
15.67
14.61
13.56
12.51
11.27
9.55
7.15
4.09
0.64
-2.80
-5.84
-8.31
-10.25
-11.91
-13.54
-15.45
-17.87
-21.06
-25.21
-30.36
-36.13
-41.70
-45.89
-47.51
-45.71
-40.34
-31.95
-21.64
-10.71
-0.32
8.67
15.84
21.06
24.41
26.10
26.39
25.57
23.96
21.93
19.88
18.19
17.16
16.86
17.16
17.79
18.45
18.94
19.22
19.33
19.36
19.25
18.83
17.84
16.04
13.32
9.76
5.69
1.52
-2.29
-5.43
-7.87
-9.82
-11.71
-14.02
-17.17
-21.32
-26.35
-31.72
-36.58
-39.86
-40.58
-38.14
-32.58
-24.63
-15.49
-6.50
1.32
7.42
11.76
14.53
15.91
15.96
14.62
11.99
8.44
4.62
1.24
-1.16
-2.50
-3.10
-3.49
-4.16
-5.31
-6.81
-8.32
-9.47
-9.98
-9.73
-8.72
-7.03
-4.81
-2.30
0.17
2.24
3.63
4.30
4.46
4.38
4.34
4.29
3.88
2.52
-0.39
-5.16
-11.65
-19.27
-27.03
-33.79
-38.48
-40.31
-38.98
-34.71
-28.22
-20.45
-12.36
-4.61
2.45
8.79
14.50
19.73
24.51
28.90
32.97
36.89
40.88
45.13
49.77
54.78
60.03
65.32
70.34
74.72
78.04
79.89
80.03
78.45
75.46
71.50
67.05
62.40
57.63
52.64
47.25
41.32
34.67
27.12
18.49
8.66
-2.30
-14.08
-26.22
-38.28
-49.95
-61.03
-71.19
-79.79
-85.84
-88.32
-86.54
-80.61
-71.44
-60.51
-49.40
-39.28
-30.73
-23.76
-18.11
-13.55
-10.03
-7.65
-6.47
-6.36
-6.98
-7.81
-8.35
-8.21
-7.26
-5.53
-3.16
-0.32
2.80
6.00
9.03
11.63
13.61
14.85
15.37
15.24
14.51
13.16
11.20
8.65
5.65
2.43
-0.77
-3.73
-6.38
-8.81
-11.20
-13.85
-17.06
-21.13
-26.15
-31.91
-37.81
-42.85
-45.90
-46.01
-42.77
-36.47
-27.97
-18.41
-8.89
-0.16
7.37
13.56
18.37
21.74
23.66
24.25
23.80
22.70
21.43
20.34
19.67
19.46
19.69
20.22
20.87
21.45
21.83
21.96
21.87
21.64
21.30
20.76
19.86
18.42
16.36
13.83
11.14
8.66
6.68
5.29
4.37
3.64
2.74
1.28
-1.07
-4.55
-9.22
-14.81
-20.65
-25.77
-29.06
-29.68
-27.30
-22.26
-15.47
-8.00
-0.80
5.54
10.78
14.85
17.65
18.94
18.45
16.03
11.83
6.35
0.36
-5.30
-10.00
-13.42
-15.63
-16.89
-17.51
-17.70
-17.44
-16.69
-15.38
-13.49
-11.01
-7.90
-4.12
0.23
4.85
9.25
12.98
15.73
17.41
17.94
17.15
14.62
10.00
3.35
-4.50
-12.02
-17.52
-19.69
-18.26
-13.96
-8.12
-2.12
3.15
7.36
10.58
12.96
14.56
15.23
14.82
13.27
10.73
7.53
4.16
1.08
-1.40
-3.15
-4.27
-4.94
-5.27
-5.23
-4.65
-3.34
-1.36
0.88
2.66
3.21
2.04
-0.78
-4.70
-8.89
-12.64
-15.64
-18.07
-20.44
-23.41
-27.48
-32.83
-39.22
-45.97
-52.05
-56.33
-57.84
-56.14
-51.41
-44.44
-36.32
-28.09
-20.40
-13.44
-7.10
-1.19
4.39
9.51
13.99
17.64
20.43
22.47
23.93
24.96
25.64
25.98
26.01
25.79
25.52
25.45
25.81
26.71
28.06
29.52
30.61
30.81
29.77
27.43
24.05
20.12
16.15
12.46
9.08
5.81
2.25
-1.95
-6.88
-12.34
-17.72
-22.21
-24.93
-25.22
-22.84
-18.05
-11.50
-4.08
3.36
10.20
16.11
20.93
24.61
27.10
28.30
28.26
27.19
25.50
23.71
22.26
21.35
20.87
20.51
19.90
18.84
17.36
15.68
14.04
12.60
11.34
10.05
8.51
6.56
4.20
1.57
-1.09
-3.57
-5.79
-7.87
-10.14
-13.05
-17.02
-22.26
-28.49
-34.98
-40.55
-43.95
-44.26
-41.15
-35.08
-27.08
-18.37
-10.01
-2.69
3.35
8.12
11.74
14.34
15.98
16.70
16.58
15.79
14.57
13.25
12.20
11.69
11.83
12.53
13.56
14.67
15.71
16.62
17.37
17.86
17.84
16.97
15.01
11.89
7.88
3.46
-0.79
-4.46
-7.39
-9.74
-11.92
-14.45
-17.78
-22.22
-27.81
-34.26
-40.92
-46.90
-51.25
-53.14
-52.17
-48.41
-42.41
-35.00
-27.05
-19.32
-12.33
-6.36
-1.46
2.43
5.46
7.79
9.54
10.84
11.77
12.45
12.99
13.52
14.14
14.83
15.57
16.27
16.89
17.30
17.39
17.01
16.07
14.58
12.67
10.53
8.31
6.09
3.80
1.30
-1.60
-5.12
-9.37
-14.27
-19.41
-24.02
-27.05
-27.51
-24.74
-18.71
-10.07
0.10
10.56
20.28
28.55
35.08
39.86
43.07
44.96
45.86
46.16
46.28
46.65
47.53
48.89
50.39
51.44
51.52
50.35
48.05
45.05
41.78
38.40
34.78
30.50
25.11
18.38
10.32
1.22
-8.44
-18.10
-27.20
-35.25
-41.96
-47.37
-51.79
-55.67
-59.40
-63.09
-66.43
-68.76
-69.32
-67.43
-62.78
-55.48
-46.07
-35.40
-24.43
-14.04
-4.93
2.53
8.18
12.12
14.55
15.77
16.01
15.57
14.67
13.54
12.36
11.24
10.25
9.40
8.73
8.29
8.16
8.39
8.85
9.24
9.16
8.26
6.43
3.89
1.03
-1.70
-4.03
-5.98
-7.82
-9.90
-12.58
-16.02
-20.13
-24.54
-28.59
-31.43
-32.27
-30.54
-26.17
-19.63
-11.77
-3.58
4.09
10.69
16.00
20.01
22.83
24.57
25.38
25.47
25.10
24.54
24.02
23.63
23.30
22.88
22.15
20.93
19.18
17.01
14.66
12.42
10.47
8.84
7.35
5.72
3.70
1.26
-1.44
-4.14
-6.64
-8.90
-11.15
-13.68
-16.76
-20.47
-24.69
-29.06
-33.06
-36.06
-37.51
-36.99
-34.38
-29.87
-23.93
-17.15
-10.10
-3.27
3.02
8.50
12.95
16.18
18.10
18.74
18.32
17.16
15.66
14.17
12.95
12.09
11.60
11.32
11.08
10.71
10.07
9.13
7.91
6.48
4.89
3.12
1.05
-1.47
-4.55
-8.11
-11.93
-15.67
-19.05
-21.93
-24.43
-26.84
-29.46
-32.38
-35.35
-37.76
-38.76
-37.57
-33.70
-27.19
-18.61
-8.96
0.59
9.06
15.86
20.91
24.39
26.57
27.52
27.04
24.82
20.70
14.76
7.41
-0.75
-9.07
-16.88
-23.51
-28.38
-31.26
-32.36
-32.51
-32.89
-34.64
-38.36
-43.84
-50.28
-56.67
-62.39
-67.56
-72.93
-79.50
-87.98
-98.43
-110.01
-121.24
-130.39
-136.04
-137.59
-135.52
-131.31
-126.93
-124.24
-124.27
-126.99
-131.41
-136.00
-139.17
-139.59
-136.34
-128.79
-116.70
-100.34
-80.63
-59.04
-37.04
-15.41
6.08
28.54
53.25
80.79
110.57
140.99
170.05
196.00
217.69
234.48
245.84
251.15
249.79
241.47
226.78
207.33
185.67
164.72
147.05
134.17
126.18
121.94
119.68
117.86
115.78
113.62
112.05
111.45
111.49
111.10
109.02
104.51
97.84
90.33
83.83
80.27
81.17
87.63
100.34
119.70
145.58
176.96
211.61
246.01
275.86
296.98
306.41
303.12
288.11
263.73
232.69
197.22
158.57
117.29
73.73
28.49
-17.29
-62.09
-104.35
-142.86
-176.99
-206.62
-231.97
-253.30
-270.63
-283.61
-291.64
-294.18
-291.09
-282.94
-270.96
-256.71
-241.69
-226.93
-212.88
-199.39
-185.85
-171.39
-155.10
-136.31
-114.70
-90.60
-64.84
-38.61
-13.18
10.57
32.31
52.39
71.56
90.62
109.86
128.77
145.92
159.23
166.63
166.69
159.16
145.02
126.14
104.69
82.57
61.12
41.14
23.15
7.61
-5.02
-14.45
-20.82
-24.72
-26.98
-28.35
-29.17
-29.38
-28.76
-27.30
-25.42
-23.86
-23.42
-24.43
-26.63
-29.22
-31.21
-31.87
-30.92
-28.56
-25.26
-21.58
-17.96
-14.77
-12.28
-10.70
-10.16
-10.59
-11.84
-13.76
-16.31
-19.70
-24.15
-29.66
-35.74
-41.35
-45.16
-46.06
-43.59
-38.09
-30.58
-22.32
-14.45
-7.69
-2.40
1.29
3.31
3.60
2.21
-0.68
-4.65
-9.13
-13.56
-17.48
-20.62
-22.89
-24.34
-25.16
-25.54
-25.74
-26.00
-26.54
-27.47
-28.84
-30.62
-32.74
-35.19
-37.96
-41.10
-44.54
-48.10
-51.56
-54.72
-57.53
-60.06
-62.49
-64.95
-67.51
-70.11
-72.71
-75.31
-78.05
-81.25
-85.22
-90.25
-96.29
-102.87
-109.07
-113.67
-115.50
-113.84
-108.65
-100.66
-91.11
-81.43
-72.77
-65.77
-60.51
-56.65
-53.71
-51.35
-49.61
-48.84
-49.53
-52.00
-56.02
-60.93
-65.97
-70.75
-75.58
-81.35
-88.91
-98.41
-108.89
-118.42
-124.76
-126.15
-121.73
-111.53
-96.24
-76.71
-53.63
-27.56
1.20
32.67
67.30
106.02
150.30
201.77
261.28
327.61
396.43
460.54
511.70
543.39
553.43
544.56
522.77
494.12
462.00
426.37
385.30
337.56
284.49
229.88
177.99
131.35
89.67
50.53
11.25
-29.45
-70.95
-111.37
-148.54
-181.15
-208.94
-232.47
-252.52
-269.52
-283.43
-293.88
-300.67
-304.14
-305.42
-306.05
-307.39
-310.08
-313.79
-317.46
-319.95
-320.55
-319.35
-317.21
-315.40
-315.00
-316.19
-317.66
-316.25
-307.37
-286.00
-248.17
-192.35
-120.23
-36.69
51.32
136.29
211.82
273.74
320.60
353.33
374.33
386.47
392.06
392.56
388.62
380.58
368.87
354.29
337.76
320.01
301.60
283.12
265.62
250.77
240.45
236.10
237.89
244.41
252.93
260.26
263.76
261.85
254.06
240.66
222.16
199.09
171.99
141.57
108.68
74.11
38.36
1.71
-35.51
-72.49
-107.89
-140.03
-167.50
-189.64
-206.82
-220.14
-230.83
-239.68
-246.69
-251.17
-252.15
-248.79
-240.77
-228.42
-212.54
-194.20
-174.55
-154.66
-135.50
-117.88
-102.44
-89.59
-79.46
-71.82
-66.15
-61.81
-58.08
-54.40
-50.44
-46.21
-41.94
-37.94
-34.37
-31.06
-27.62
-23.63
-18.99
-14.07
-9.63
-6.48
-5.12
-5.56
-7.44
-10.19
-13.34
-16.55
-19.65
-22.49
-24.94
-26.96
-28.62
-30.06
-31.36
-32.28
-32.35
-30.92
-27.45
-21.81
-14.35
-5.82
2.90
11.02
18.11
24.01
28.72
32.24
34.49
35.29
34.49
32.15
28.48
23.94
19.00
14.10
9.56
5.52
2.05
-0.86
-3.22
-5.10
-6.56
-7.72
-8.70
-9.65
-10.75
-12.22
-14.29
-17.09
-20.61
-24.66
-28.97
-33.29
-37.53
-41.76
-46.08
-50.39
-54.28
-57.05
-57.94
-56.43
-52.41
-46.23
-38.57
-30.17
-21.65
-13.46
-5.89
0.88
6.70
11.49
15.23
17.96
19.83
20.95
21.48
21.61
21.60
21.79
22.55
24.16
26.73
30.17
34.20
38.42
42.45
46.00
48.82
50.74
51.63
51.45
50.29
48.37
46.02
43.54
41.07
38.49
35.44
31.47
26.32
20.13
13.55
7.60
3.36
1.65
2.71
6.22
11.39
17.22
22.83
27.57
31.09
33.27
34.14
33.74
32.12
29.39
25.71
21.38
16.79
12.38
8.48
5.29
2.84
1.07
-0.09
-0.72
-0.95
-1.04
-1.33
-2.13
-3.60
-5.59
-7.80
-9.87
-11.60
-12.98
-14.20
-15.52
-17.13
-19.20
-21.77
-24.77
-27.91
-30.57
-31.95
-31.26
-28.09
-22.59
-15.42
-7.60
-0.06
6.57
12.06
16.46
19.94
22.60
24.49
25.61
26.04
25.90
25.37
24.61
23.75
22.78
21.70
20.43
18.98
17.35
15.61
13.76
11.77
9.54
7.04
4.28
1.42
-1.29
-3.61
-5.42
-6.73
-7.75
-8.84
-10.35
-12.62
-15.75
-19.52
-23.34
-26.31
-27.50
-26.28
-22.51
-16.69
-9.71
-2.56
4.01
9.61
14.17
17.74
20.31
21.82
22.24
21.70
20.56
19.27
18.28
17.77
17.63
17.46
16.80
15.28
12.77
9.49
5.93
2.64
0.06
-1.62
-2.50
-2.88
-3.15
-3.65
-4.67
-6.43
-9.03
-12.36
-16.08
-19.68
-22.66
-24.70
-25.85
-26.47
-27.04
-27.95
-29.21
-30.49
-31.14
-30.54
-28.22
-24.10
-18.43
-11.85
-5.08
1.15
6.38
10.38
13.20
15.03
16.07
16.45
16.28
15.68
14.85
14.06
13.54
13.39
13.49
13.55
13.27
12.48
11.23
9.78
8.44
7.47
6.85
6.37
5.66
4.40
2.45
-0.11
-2.96
-5.79
-8.35
-10.54
-12.37
-13.95
-15.32
-16.61
-18.01
-19.77
-22.10
-24.92
-27.81
-30.01
-30.67
-29.20
-25.53
-20.13
-13.82
-7.42
-1.56
3.47
7.63
11.00
13.64
15.54
16.69
17.13
16.99
16.45
15.72
14.98
14.36
13.96
13.77
13.79
13.91
13.99
13.90
13.47
12.56
11.05
8.91
6.23
3.24
0.23
-2.53
-4.93
-6.99
-8.91
-10.84
-12.85
-14.91
-16.93
-18.83
-20.51
-21.97
-23.22
-24.42
-25.84
-27.78
-30.40
-33.46
-36.23
-37.77
-37.21
-34.19
-29.04
-22.65
-16.08
-10.13
-5.05
-0.63
3.66
8.25
13.34
18.75
23.97
28.38
31.49
33.12
33.48
33.02
32.29
31.66
31.22
30.84
30.27
29.27
27.65
25.35
22.40
18.91
15.09
11.24
7.77
5.03
3.24
2.36
2.00
1.55
0.45
-1.58
-4.39
-7.43
-10.04
-11.76
-12.56
-12.86
-13.30
-14.46
-16.62
-19.72
-23.35
-26.97
-29.89
-31.47
-31.14
-28.58
-23.80
-17.18
-9.48
-1.57
5.77
12.04
17.14
21.22
24.50
26.99
28.43
28.39
26.63
23.34
19.23
15.29
12.38
10.89
10.60
10.91
11.18
10.97
10.20
9.02
7.59
5.95
4.05
1.83
-0.64
-3.16
-5.52
-7.55
-9.26
-10.82
-12.43
-14.33
-16.58
-19.03
-21.42
-23.41
-24.67
-25.03
-24.46
-23.17
-21.55
-20.11
-19.34
-19.51
-20.56
-21.94
-22.78
-22.11
-19.11
-13.45
-5.33
4.58
15.38
26.14
36.14
44.83
51.81
56.77
59.47
59.84
58.02
54.41
49.55
43.95
38.02
31.96
25.83
19.62
13.37
7.22
1.38
-3.90
-8.47
-12.31
-15.54
-18.34
-20.91
-23.34
-25.66
-27.87
-30.00
-32.18
-34.68
-37.74
-41.48
-45.87
-50.78
-56.05
-61.67
-67.71
-74.30
-81.46
-89.05
-96.83
-104.62
-112.44
-120.49
-128.99
-137.86
-146.54
-154.00
-159.00
-160.53
-158.09
-151.82
-142.35
-130.52
-117.22
-103.27
-89.30
-75.69
-62.51
-49.47
-36.09
-21.91
-6.79
9.09
25.44
42.14
59.46
77.84
97.57
118.35
139.19
158.75
175.90
190.18
201.94
211.92
220.77
228.53
234.58
237.95
237.80
233.81
226.34
216.13
203.94
190.27
175.23
158.79
140.97
122.13
102.95
84.22
66.57
50.23
35.02
20.45
6.15
-7.92
-21.25
-32.92
-41.79
-47.07
-48.54
-46.71
-42.62
-37.52
-32.44
-28.04
-24.54
-21.89
-19.95
-18.62
-17.83
-17.59
-17.84
-18.44
-19.17
-19.75
-19.96
-19.62
-18.66
-17.11
-15.05
-12.54
-9.67
-6.57
-3.53
-0.95
0.78
1.43
1.04
-0.04
-1.40
-2.68
-3.83
-5.02
-6.54
-8.61
-11.22
-14.15
-17.08
-19.69
-21.83
-23.52
-24.92
-26.26
-27.80
-29.80
-32.45
-35.75
-39.47
-43.05
-45.73
-46.73
-45.56
-42.11
-36.75
-30.16
-23.06
-16.03
-9.45
-3.54
1.51
5.49
8.17
9.43
9.40
8.50
7.30
6.39
6.14
6.63
7.67
9.02
10.45
11.90
13.39
14.87
16.18
16.99
16.94
15.79
13.52
10.35
6.57
2.48
-1.79
-6.24
-10.90
-15.74
-20.56
-25.08
-28.99
-32.06
-34.25
-35.60
-36.23
-36.30
-36.01
-35.67
-35.70
-36.40
-37.78
-39.35
-40.21
-39.31
-35.84
-29.66
-21.39
-12.23
-3.62
3.25
7.66
9.46
8.99
6.78
3.46
-0.49
-4.71
-9.04
-13.47
-17.99
-22.63
-27.30
-31.86
-36.08
-39.71
-42.57
-44.60
-45.91
-46.76
-47.56
-48.64
-50.25
-52.42
-55.02
-57.85
-60.75
-63.61
-66.47
-69.39
-72.41
-75.59
-78.99
-82.76
-87.12
-92.27
-98.27
-104.98
-112.08
-119.28
-126.55
-134.13
-142.38
-151.46
-160.99
-169.95
-176.90
-180.48
-179.93
-175.54
-168.64
-161.28
-155.49
-152.50
-152.30
-153.77
-155.19
-155.04
-152.56
-147.74
-141.03
-132.87
-123.56
-113.55
-103.87
-95.95
-91.06
-89.22
-88.59
-85.74
-76.92
-59.70
-34.06
-2.37
31.86
65.53
97.24
127.49
157.65
188.52
219.08
246.60
267.65
279.64
281.96
275.98
264.19
248.98
231.90
213.82
195.61
178.73
165.14
156.44
152.92
153.19
154.66
154.64
151.46
144.97
136.14
126.41
116.94
108.31
100.54
93.38
86.57
80.01
73.72
67.75
62.19
57.04
52.27
47.83
43.64
39.67
35.93
32.57
29.85
28.06
27.38
27.76
28.83
29.98
30.52
29.97
28.29
25.99
24.08
23.80
26.12
31.36
39.05
48.05
57.08
65.11
71.66
76.77
80.73
83.85
86.34
88.37
90.20
92.25
95.16
99.65
106.41
115.93
128.32
143.17
159.52
176.08
191.45
204.55
214.78
221.97
226.16
227.49
226.13
222.47
217.25
211.38
205.75
200.79
196.45
192.43
188.53
185.01
182.43
181.26
181.34
181.63
180.41
175.89
166.83
152.78
133.90
110.50
82.79
50.99
15.67
-22.00
-60.34
-97.73
-133.12
-166.27
-197.44
-226.70
-253.41
-276.34
-294.07
-305.65
-311.07
-311.33
-308.08
-303.09
-297.75
-292.81
-288.40
-284.36
-280.20
-275.48
-269.99
-263.82
-257.42
-251.09
-244.86
-238.57
-232.20
-225.49
-218.37
-210.93
-203.44
-196.59
-190.80
-186.20
-182.76
-180.76
-179.85
-179.70
-180.02
-180.64
-182.09
-184.50
-187.52
-190.44
-192.56
-191.85
-185.87
-172.33
-149.65
-118.24
-79.38
-34.83
14.75
65.82
114.53
157.54
193.25
226.62
259.89
292.94
324.82
355.34
379.40
395.41
403.30
403.65
397.32
384.48
366.13
344.07
320.31
296.16
273.11
251.70
231.70
212.55
193.07
172.65
151.25
128.98
105.58
81.20
55.65
28.56
-0.32
-31.24
-63.74
-96.81
-129.39
-160.84
-190.54
-218.15
-243.47
-266.12
-285.79
-302.07
-314.77
-324.05
-330.53
-334.76
-337.23
-338.12
-337.15
-333.68
-326.69
-314.94
-297.46
-273.85
-244.55
-211.02
-175.43
-140.25
-107.57
-78.69
-53.77
-32.05
-12.22
7.08
26.85
47.50
68.82
90.09
110.23
128.03
142.31
152.33
157.93
159.69
158.91
157.14
155.75
155.53
156.48
158.00
159.16
159.00
156.71
151.68
143.65
132.88
120.26
107.26
95.53
86.42
80.39
76.89
74.61
72.05
68.13
62.68
56.65
51.81
50.31
53.97
63.70
79.16
98.81
120.38
141.47
160.04
174.84
185.39
191.97
195.48
197.44
199.88
204.96
214.67
230.15
251.29
276.52
302.89
326.61
343.77
351.14
346.93
331.22
305.80
273.63
237.92
201.31
165.34
130.42
96.21
62.09
27.61
-7.44
-42.99
-78.81
-114.58
-149.79
-183.76
-215.69
-244.90
-271.07
-294.47
-315.98
-336.87
-358.35
-381.06
-404.64
-427.65
-447.97
-463.53
-473.17
-477.17
-477.21
-475.77
-475.09
-476.40
-479.51
-483.22
-486.15
-487.64
-488.15
-489.07
-491.85
-497.08
-503.87
-509.78
-511.30
-504.69
-486.89
-456.09
-412.02
-355.81
-289.52
-215.61
-136.48
-54.09
30.09
114.98
199.57
282.43
361.47
434.02
497.36
549.46
589.39
617.69
636.01
646.54
651.24
651.08
645.60
633.08
611.40
579.39
537.87
489.79
439.31
390.17
344.33
301.64
260.63
219.92
179.24
139.28
100.79
63.71
27.07
-10.29
-48.46
-85.87
-119.87
-148.00
-169.17
-184.16
-195.10
-204.37
-213.61
-222.85
-230.20
-232.42
-225.85
-207.88
-178.50
-141.05
-101.82
-68.22
-46.18
-37.89
-41.02
-49.89
-58.16
-61.56
-59.52
-54.83
-51.93
-54.89
-66.13
-85.81
-112.24
-142.44
-172.78
-199.71
-220.58
-234.12
-240.51
-240.67
-235.17
-223.41
-203.68
-174.30
-135.06
-88.32
-39.05
6.64
43.25
67.48
78.80
79.08
71.39
59.09
44.95
30.74
17.25
4.40
-8.31
-21.51
-35.53
-50.23
-64.83
-78.07
-88.66
-95.72
-99.16
-99.53
-97.75
-94.42
-89.71
-83.46
-75.49
-66.02
-55.73
-45.39
-35.43
-25.69
-15.61
-4.86
6.14
16.24
24.39
30.64
36.67
45.33
59.56
81.05
109.82
144.73
184.37
227.60
273.28
319.54
363.23
400.62
428.73
447.03
457.91
465.89
475.60
489.88
508.89
530.33
550.58
565.76
572.62
568.81
553.02
525.00
485.55
436.41
379.66
317.37
251.15
182.18
111.46
40.04
-30.79
-99.64
-165.23
-226.50
-282.62
-332.90
-376.86
-414.32
-445.65
-471.68
-493.50
-512.06
-527.74
-540.21
-548.50
-551.40
-547.90
-537.51
-520.40
-497.14
-468.57
-435.53
-399.00
-360.27
-321.17
-283.86
-250.38
-222.03
-198.89
-179.91
-163.43
-147.92
-132.54
-117.23
-102.25
-87.72
-73.32
-58.56
-43.18
-27.54
-12.52
1.05
12.95
23.84
34.98
47.59
62.23
78.53
95.38
111.42
125.48
136.82
145.21
150.83
154.14
155.81
156.51
156.71
156.60
156.16
155.29
154.09
152.90
152.20
152.36
153.45
155.24
157.37
159.54
161.65
163.76
165.86
167.70
168.68
168.00
165.04
159.53
151.77
142.41
132.21
121.88
112.01
103.15
95.78
90.14
85.90
82.23
78.20
73.14
67.09
60.69
54.57
48.87
42.99
35.71
25.96
13.57
-0.40
-13.99
-25.01
-32.00
-34.76
-34.40
-33.21
-33.43
-36.29
-41.61
-48.28
-55.31
-62.71
-71.41
-82.43
-96.50
-112.67
-128.33
-140.20
-145.79
-144.70
-138.57
-130.06
-121.38
-114.77
-111.32
-111.11
-113.40
-117.11
-121.05
-124.10
-125.07
-123.18
-120.21
-119.52
-125.12
-139.90
-164.19
-195.61
-229.62
-260.98
-275.50
-262.88
-220.00
-153.52
-76.53
-1.57
63.81
117.18
158.95
190.50
211.58
222.10
222.97
216.73
207.22
198.14
191.90
189.26
189.70
190.58
189.29
184.41
176.17
166.21
156.51
148.35
141.89
136.18
128.92
117.55
100.66
78.56
53.05
26.62
1.43
-21.27
-39.66
-55.06
-69.23
-83.27
-97.16
-109.74
-119.33
-124.68
-125.45
-122.51
-117.95
-113.77
-111.50
-112.08
-115.98
-122.91
-131.38
-138.12
-138.41
-127.98
-104.69
-70.43
-31.02
5.80
33.49
49.20
54.29
52.82
48.78
44.55
40.42
35.63
29.84
23.72
18.65
15.68
14.79
14.70
13.76
10.63
5.02
-2.20
-9.65
-15.97
-20.66
-23.85
-26.48
-29.74
-34.40
-40.55
-47.45
-53.95
-58.92
-61.62
-61.83
-59.82
-56.08
-50.99
-44.81
-37.29
-28.21
-17.57
-5.71
6.73
18.84
29.76
38.84
45.74
50.48
53.27
54.45
54.38
53.40
51.78
49.76
47.51
45.17
42.82
40.48
38.05
35.44
32.54
29.24
25.50
21.34
16.82
12.03
7.09
2.13
-2.77
-7.50
-11.98
-16.13
-19.91
-23.34
-26.57
-29.70
-32.92
-36.50
-40.62
-45.36
-50.64
-56.30
-62.14
-68.03
-73.61
-78.66
-82.93
-86.13
-87.89
-87.78
-85.43
-80.64
-73.56
-64.31
-53.28
-40.91
-27.50
-13.08
2.59
20.06
40.13
61.68
84.54
108.75
134.18
160.18
185.43
208.09
226.31
238.71
244.64
244.46
238.94
228.92
215.24
198.86
180.98
162.95
146.01
130.90
117.83
106.10
94.51
81.78
67.15
50.66
33.25
16.42
1.68
-9.99
-18.63
-25.29
-31.53
-38.83
-48.17
-59.89
-73.83
-89.62
-106.68
-124.10
-140.37
-153.23
-160.02
-158.38
-147.21
-127.39
-101.78
-74.52
-49.79
-30.63
-18.42
-13.02
-13.49
-18.65
-27.29
-37.94
-48.63
-57.16
-61.63
-61.13
-55.73
-46.02
-32.36
-14.65
7.11
31.70
56.02
75.67
86.66
87.37
79.62
67.86
57.15
51.00
50.18
52.88
56.45
59.30
61.71
65.35
71.93
82.05
94.91
108.76
121.45
130.88
134.86
131.06
117.62
94.02
62.12
26.38
-7.39
-34.50
-53.15
-65.01
-73.97
-83.70
-96.12
-110.49
-124.16
-132.06
-129.74
-114.56
-86.59
-48.84
-5.82
37.15
75.47
106.00
127.38
139.57
144.18
143.52
139.18
132.11
121.47
105.72
83.73
55.50
21.87
-14.22
-49.45
-82.46
-113.43
-145.33
-182.63
-229.61
-288.99
-360.51
-439.90
-518.13
-585.08
-622.58
-618.66
-571.72
-491.08
-393.18
-294.14
-210.89
-142.34
-80.84
-18.11
50.07
123.38
199.69
273.91
339.73
389.12
415.67
415.71
391.69
355.01
313.65
271.75
230.51
188.97
147.55
108.75
74.70
46.88
24.86
6.31
-10.51
-25.96
-37.35
-41.25
-34.53
-16.84
9.57
40.43
70.61
96.29
115.51
127.99
134.58
136.79
135.80
132.33
126.52
118.50
107.47
92.57
73.35
49.95
22.90
-7.81
-43.22
-84.97
-134.05
-184.99
-229.46
-257.84
-262.38
-240.45
-195.91
-137.71
-76.17
-19.79
24.55
55.37
71.60
72.12
57.15
29.92
-3.26
-34.03
-54.75
-61.28
-54.01
-37.32
-16.69
3.01
20.19
33.17
40.46
40.42
31.30
11.93
-17.47
-53.75
-89.88
-116.90
-127.45
-118.58
-93.23
-59.14
-25.53
2.74
24.09
41.46
59.75
81.90
106.63
129.11
144.15
148.52
140.32
118.38
82.38
32.60
-29.70
-100.29
-171.35
-230.13
-264.59
-269.78
-250.27
-217.20
-182.69
-154.63
-134.89
-120.99
-111.61
-104.52
-99.50
-97.18
-97.45
-99.17
-100.92
-101.89
-102.32
-103.05
-105.67
-111.83
-122.17
-135.78
-150.59
-164.25
-175.01
-181.99
-185.20
-185.09
-182.48
-177.85
-171.03
-161.52
-148.75
-132.53
-113.31
-92.05
-69.95
-48.41
-28.65
-11.46
2.93
14.80
24.83
33.82
42.66
51.99
61.94
72.15
81.98
90.93
99.14
107.47
117.25
130.06
147.20
168.99
194.66
222.71
251.41
279.84
307.93
335.96
365.00
396.84
433.45
476.31
525.19
576.96
625.72
663.10
679.89
670.46
635.34
580.51
515.12
447.96
384.76
328.26
278.33
232.45
189.43
150.18
115.92
87.02
62.32
39.61
17.81
-3.30
-24.58
-44.75
-60.36
-68.23
-66.53
-55.48
-44.74
-42.72
-43.36
-44.07
-47.76
-54.14
-61.94
-70.47
-80.49
-94.37
-114.04
-140.97
-177.09
-221.93
-272.73
-326.36
-379.38
-427.43
-464.81
-484.81
-483.88
-466.31
-442.86
-426.91
-429.33
-452.75
-489.67
-525.92
-547.01
-545.36
-523.77
-491.61
-458.75
-431.31
-409.98
-391.75
-373.05
-351.71
-327.40
-300.97
-272.33
-239.85
-201.62
-156.66
-105.70
-51.08
4.15
57.56
108.05
156.38
204.58
254.32
305.01
352.35
388.42
403.98
392.45
353.45
294.30
228.08
168.90
126.62
103.66
95.29
93.00
88.95
78.90
62.74
42.72
21.17
-0.99
-24.05
-48.60
-74.23
-99.19
-120.91
-136.85
-145.29
-145.83
-139.13
-126.52
-109.48
-89.00
-64.82
-36.11
-1.76
38.96
86.15
139.32
197.92
261.24
327.64
394.69
457.55
509.73
545.24
561.18
559.58
547.38
533.92
527.45
533.71
552.47
578.32
602.73
617.02
614.99
594.38
556.80
506.61
451.82
399.97
356.98
326.20
308.55
302.94
306.95
317.44
315.51
287.42
225.63
132.31
18.82
-99.12
-207.55
-297.91
-367.42
-417.29
-448.28
-461.83
-459.56
-443.99
-419.04
-389.61
-360.68
-336.27
-318.76
-306.47
-297.79
-291.02
-285.43
-281.88
-282.27
-288.87
-303.68
-326.46
-355.18
-386.26
-414.15
-431.54
-431.45
-409.83
-367.71
-311.44
-250.77
-195.34
-152.01
-123.23
-107.46
-101.35
-100.34
-100.50
-98.73
-92.82
-81.88
-66.64
-49.20
-32.18
-17.97
-7.84
-1.95
0.55
1.02
0.70
0.63
1.49
3.64
6.88
10.71
14.87
19.57
25.68
34.34
46.80
62.52
80.99
101.37
122.87
145.06
168.16
193.15
221.37
253.92
290.70
329.76
366.70
395.27
408.85
402.58
375.02
328.77
269.55
204.44
140.08
81.22
30.58
-10.66
-42.07
-63.75
-76.38
-81.41
-81.19
-78.40
-75.75
-75.62
-79.94
-90.03
-106.25
-127.62
-151.85
-176.13
-198.13
-216.76
-231.84
-243.04
-248.67
-245.65
-230.75
-202.53
-162.59
-115.13
-65.14
-16.45
29.13
70.89
107.38
135.18
149.33
145.31
121.52
80.52
28.61
-26.21
-76.64
-117.95
-148.60
-169.74
-184.10
-195.20
-206.81
-222.72
-245.97
-277.59
-315.40
-353.66
-384.28
-399.64
-395.60
-373.19
-338.15
-298.32
-260.52
-228.31
-201.85
-179.21
-158.30
-137.94
-117.83
-97.70
-76.76
-53.65
-27.18
2.93
35.82
69.85
103.47
135.90
167.19
197.74
227.53
255.59
280.00
298.29
308.12
307.86
297.04
276.49
248.35
215.86
182.81
152.81
128.52
111.05
99.88
93.42
89.80
87.68
86.65
87.24
90.42
97.12
107.62
121.16
135.98
149.71
159.96
164.87
163.47
155.74
142.42
124.73
104.25
82.68
61.80
43.11
27.57
15.41
6.08
-1.47
-8.53
-16.12
-24.77
-34.39
-44.31
-53.54
-60.93
-65.42
-66.29
-63.20
-56.32
-46.27
-34.11
-21.17
-8.88
1.51
9.17
13.68
15.09
13.74
10.24
5.65
1.45
-0.54
1.26
7.56
17.64
29.50
40.49
48.36
52.01
51.77
48.94
45.03
41.15
37.82
35.18
33.35
32.65
33.49
36.07
40.11
44.81
49.04
51.69
52.03
49.86
45.49
39.47
32.38
24.71
16.95
9.65
3.54
-0.63
-2.25
-1.23
1.87
5.87
9.31
10.96
10.17
6.97
1.98
-3.79
-9.19
-12.99
-14.11
-11.72
-5.54
4.08
16.13
29.27
42.12
53.58
62.78
68.72
70.07
65.03
51.72
29.00
-2.79
-41.28
-82.15
-119.90
-148.93
-164.80
-165.21
-150.47
-123.32
-88.25
-50.58
-15.37
13.47
33.73
45.09
48.83
47.19
42.65
37.23
32.20
28.04
24.74
22.04
19.71
17.53
15.28
12.73
9.65
5.97
1.88
-2.23
-5.89
-8.89
-11.30
-13.47
-15.69
-17.93
-19.68
-20.22
-18.98
-15.98
-11.89
-7.80
-4.66
-2.91
-2.34
-2.34
-2.31
-1.99
-1.50
-1.25
-1.67
-3.13
-5.83
-9.92
-15.39
-22.10
-29.64
-37.33
-44.30
-49.74
-53.04
-53.97
-52.71
-49.70
-45.56
-40.98
-36.56
-32.85
-30.23
-28.95
-29.08
-30.46
-32.77
-35.45
-37.87
-39.43
-39.71
-38.57
-36.25
-33.23
-30.09
-27.06
-23.82
-19.40
-12.59
-2.50
10.80
26.06
41.17
53.80
62.18
65.48
63.94
58.45
50.19
40.35
30.10
20.64
13.14
8.54
7.17
8.46
10.98
12.90
12.69
9.76
4.66
-1.02
-5.36
-6.67
-4.05
2.43
11.81
22.52
32.64
40.32
44.13
43.41
38.44
30.24
20.22
9.61
-0.74
-10.37
-18.91
-25.95
-31.09
-34.22
-35.75
-36.61
-37.88
-40.28
-43.79
-47.49
-49.88
-49.30
-44.60
-35.48
-22.81
-8.42
5.30
16.14
22.76
25.10
24.23
21.72
18.86
16.11
13.09
9.07
3.68
-2.63
-8.64
-12.67
-13.28
-9.59
-1.59
9.91
23.31
36.48
47.11
53.17
53.50
48.08
37.93
24.81
10.75
-2.34
-12.78
-19.18
-20.63
-16.92
-8.80
2.04
13.18
22.04
26.52
25.51
19.26
9.32
-1.78
-11.14
-16.28
-15.75
-9.46
1.45
15.11
29.51
42.79
53.35
59.83
61.16
56.77
46.95
32.95
16.81
0.81
-13.13
-23.96
-31.67
-37.01
-41.07
-44.69
-48.09
-50.82
-52.01
-50.89
-47.21
-41.41
-34.43
-27.39
-21.10
-15.92
-11.82
-8.63
-6.31
-4.99
-4.81
-5.80
-7.66
-9.86
-11.80
-13.11
-13.67
-13.74
-13.69
-13.81
-14.22
-14.79
-15.29
-15.50
-15.33
-14.80
-14.01
-13.08
-12.16
-11.39
-10.96
-11.07
-11.79
-13.02
-14.47
-15.82
-16.94
-17.99
-19.39
-21.56
-24.52
-27.76
-30.31
-31.20
-29.90
-26.67
-22.37
-18.11
-14.78
-12.75
-11.85
-11.36
-10.14
-6.68
0.57
12.63
29.32
48.73
67.45
81.54
87.83
85.14
74.59
59.05
41.90
26.00
13.03
3.64
-2.27
-5.07
-5.36
-3.97
-2.09
-1.01
-1.80
-4.91
-9.90
-15.56
-20.39
-23.15
-23.29
-21.13
-17.65
-14.11
-11.54
-10.44
-10.74
-12.00
-13.59
-14.91
-15.50
-14.98
-13.16
-9.97
-5.63
-0.65
4.29
8.50
11.48
13.08
13.47
13.04
12.18
11.17
10.11
8.95
7.57
5.87
3.77
1.29
-1.49
-4.43
-7.37
-10.10
-12.41
-14.11
-15.05
-15.19
-14.58
-13.36
-11.77
-10.08
-8.51
-7.22
-6.26
-5.59
-5.12
-4.73
-4.32
-3.84
-3.29
-2.72
-2.21
-1.88
-1.74
-1.74
-1.72
-1.48
-0.79
0.54
2.60
5.29
8.39
11.52
14.31
16.46
17.85
18.49
18.41
17.55
15.77
12.97
9.22
4.95
0.76
-2.68
-5.04
-6.47
-7.48
-8.72
-10.55
-12.89
-15.28
-17.17
-18.30
-18.83
-19.23
-20.04
-21.50
-23.45
-25.42
-26.87
-27.44
-27.11
-26.20
-25.26
-24.82
-25.29
-26.81
-29.13
-31.68
-33.63
-34.12
-32.56
-28.81
-23.27
-16.80
-10.31
-4.38
1.17
7.28
15.35
26.48
40.83
57.31
73.72
87.44
96.25
98.97
95.65
87.36
75.73
62.47
49.14
36.94
26.75
19.05
13.88
10.99
9.80
9.64
9.81
9.64
8.67
6.71
3.84
0.38
-3.31
-6.96
-10.53
-14.19
-18.20
-22.76
-27.87
-33.35
-38.85
-44.00
-48.41
-51.83
-54.12
-55.21
-55.16
-54.09
-52.21
-49.75
-47.00
-44.25
-41.71
-39.50
-37.59
-35.77
-33.78
-31.32
-28.15
-24.18
-19.48
-14.31
-9.05
-4.14
0.06
3.36
5.80
7.52
8.66
9.25
9.19
8.35
6.68
4.27
1.45
-1.34
-3.65
-5.14
-5.68
-5.39
-4.63
-3.83
-3.35
-3.31
-3.51
-3.43
-2.41
0.11
4.33
10.00
16.42
22.61
27.71
31.13
32.78
32.93
32.01
30.42
28.37
25.96
23.26
20.43
17.65
15.06
12.67
10.40
8.18
6.05
4.20
2.83
1.99
1.53
0.96
-0.25
-2.57
-6.10
-10.44
-14.66
-17.53
-17.84
-14.89
-8.84
-0.70
7.90
15.12
19.48
20.15
17.02
10.67
2.13
-7.22
-15.95
-22.81
-27.03
-28.38
-27.26
-24.37
-20.46
-16.07
-11.52
-7.00
-2.70
1.13
4.33
6.90
9.08
11.17
13.40
15.75
17.93
19.55
20.35
20.29
19.58
18.49
17.19
15.70
13.88
11.64
8.98
6.06
3.12
0.33
-2.25
-4.67
-6.95
-9.03
-10.77
-11.94
-12.53
-12.74
-13.02
-13.82
-15.38
-17.52
-19.62
-20.81
-20.28
-17.65
-13.11
-7.35
-1.33
4.09
8.36
11.34
13.17
14.10
14.26
13.68
12.34
10.32
7.88
5.51
3.68
2.73
2.61
2.94
3.15
2.73
1.54
-0.15
-1.79
-2.88
-3.23
-3.06
-2.86
-3.09
-3.96
-5.38
-7.04
-8.55
-9.53
-9.59
-8.28
-5.28
-0.55
5.35
11.34
16.04
18.33
17.78
14.95
11.13
7.80
6.09
6.37
8.19
10.71
13.05
14.68
15.54
15.79
15.55
14.75
13.14
10.51
6.96
3.00
-0.62
-3.17
-4.34
-4.29
-3.67
-3.18
-3.37
-4.35
-5.87
-7.48
-8.76
-9.53
-9.86
-10.08
-10.58
-11.72
-13.68
-16.38
-19.54
-22.72
-25.51
-27.62
-29.00
-29.78
-30.23
-30.64
-31.16
-31.76
-32.16
-31.94
-30.66
-28.01
-23.98
-18.79
-12.89
-6.77
-0.82
4.71
9.73
14.16
17.85
20.44
21.56
20.92
18.48
14.57
9.75
4.75
0.23
-3.38
-5.90
-7.36
-7.89
-7.61
-6.62
-5.00
-2.92
-0.62
1.53
3.15
3.82
3.20
1.11
-2.41
-7.00
-12.02
-16.56
-19.67
-20.56
-18.90
-14.99
-9.66
-4.06
0.72
3.94
5.47
5.59
4.89
4.01
3.48
3.71
4.92
7.15
10.21
13.64
16.82
19.11
20.03
19.41
17.44
14.56
11.32
8.34
6.17
5.25
5.81
7.77
10.73
14.06
17.06
19.20
20.25
20.38
20.06
19.94
20.64
22.48
25.32
28.54
31.15
32.20
31.12
27.92
23.11
17.39
11.37
5.42
-0.30
-5.59
-10.19
-13.78
-16.16
-17.44
-18.05
-18.55
-19.43
-20.86
-22.69
-24.50
-25.83
-26.30
-25.71
-24.07
-21.58
-18.53
-15.25
-12.07
-9.25
-7.07
-5.78
-5.67
-6.99
-9.89
-14.30
-19.86
-25.92
-31.67
-36.23
-38.86
-39.05
-36.76
-32.45
-27.06
-21.75
-17.52
-14.89
-13.77
-13.65
-14.04
-14.74
-16.02
-18.30
-21.74
-25.92
-29.86
-32.39
-32.64
-30.36
-25.85
-19.62
-11.94
-2.71
8.44
21.64
36.41
51.43
64.85
74.84
80.22
80.81
77.34
70.99
62.93
54.01
44.90
36.29
29.06
24.20
22.32
23.29
26.13
29.41
31.82
32.80
32.72
32.50
33.10
34.84
37.28
39.38
40.05
38.62
34.99
29.59
23.05
15.91
8.49
1.01
-6.32
-13.17
-19.13
-23.77
-26.70
-27.57
-25.97
-21.48
-13.74
-2.70
11.20
26.89
42.88
57.50
69.24
77.06
80.50
79.57
74.64
66.32
55.49
43.27
31.01
19.90
10.50
2.46
-5.35
-14.28
-25.08
-37.14
-48.53
-56.43
-58.22
-52.48
-39.81
-22.93
-6.26
5.15
6.98
-2.81
-23.01
-48.90
-73.40
-89.38
-92.37
-82.63
-65.50
-49.55
-43.20
-51.01
-71.46
-97.37
-118.78
-127.04
-118.07
-93.41
-58.84
-21.37
13.27
41.93
63.51
77.81
84.66
84.02
76.65
64.84
52.19
42.50
38.41
40.27
46.19
52.94
57.33
57.49
53.30
46.19
38.21
31.08
25.54
21.21
17.01
11.76
4.82
-3.58
-12.48
-20.61
-26.88
-30.85
-32.81
-33.56
-34.01
-34.79
-36.01
-37.40
-38.57
-39.28
-39.60
-39.83
-40.34
-41.34
-42.84
-44.67
-46.62
-48.45
-49.93
-50.80
-50.82
-49.78
-47.61
-44.36
-40.05
-34.47
-27.15
-17.39
-4.65
10.99
28.49
45.86
60.56
70.30
73.72
70.88
63.13
52.59
41.42
31.23
22.88
16.56
12.16
9.55
8.64
9.25
10.91
12.85
14.15
14.09
12.49
9.72
6.60
3.96
2.31
1.66
1.59
1.51
0.89
-0.51
-2.63
-5.21
-7.85
-10.10
-11.61
-12.10
-11.43
-9.67
-7.01
-3.80
-0.50
2.42
4.53
5.53
5.36
4.18
2.34
0.23
-1.84
-3.77
-5.58
-7.32
-9.02
-10.54
-11.71
-12.37
-12.43
-11.86
-10.70
-9.05
-7.10
-5.18
-3.74
-3.24
-3.97
-5.88
-8.55
-11.25
-13.22
-13.95
-13.39
-12.03
-10.69
-10.22
-11.11
-13.30
-16.23
-19.03
-20.87
-21.26
-20.07
-17.49
-13.87
-9.59
-5.08
-0.74
3.01
5.91
7.90
9.14
9.96
10.66
11.44
12.28
13.05
13.63
13.98
14.21
14.45
14.75
15.03
15.12
14.77
13.88
12.53
10.95
9.42
8.11
6.98
5.81
4.37
2.60
0.65
-1.19
-2.65
-3.73
-4.70
-5.98
-7.91
-10.55
-13.66
-16.78
-19.43
-21.22
-21.90
-21.31
-19.33
-15.96
-11.35
-5.86
-0.02
5.60
10.61
14.81
18.26
21.13
23.61
25.80
27.71
29.27
30.39
30.96
30.89
30.11
28.63
26.50
23.83
20.82
17.66
14.57
11.76
9.36
7.39
5.69
3.96
1.88
-0.72
-3.74
-6.81
-9.46
-11.37
-12.53
-13.32
-14.25
-15.75
-17.82
-20.10
-22.00
-23.01
-22.86
-21.58
-19.33
-16.29
-12.58
-8.33
-3.83
0.46
4.01
6.41
7.54
7.58
6.94
6.13
5.53
5.37
5.67
6.35
7.19
8.00
8.61
8.96
9.11
9.18
9.29
9.47
9.61
9.57
9.20
8.47
7.39
6.08
4.60
2.96
1.19
-0.70
-2.63
-4.48
-6.21
-7.91
-9.80
-12.08
-14.80
-17.70
-20.28
-21.96
-22.25
-20.91
-17.96
-13.65
-8.40
-2.74
2.79
7.70
11.66
14.50
16.26
17.10
17.24
16.86
16.11
15.13
14.07
13.09
12.24
11.55
10.93
10.26
9.49
8.62
7.76
7.02
6.49
6.15
5.84
5.34
4.48
3.23
1.69
0.09
-1.34
-2.48
-3.32
-3.95
-4.53
-5.25
-6.34
-8.06
-10.60
-13.94
-17.76
-21.44
-24.22
-25.48
-24.94
-22.75
-19.37
-15.40
-11.31
-7.34
-3.60
-0.07
3.16
6.03
8.46
10.46
12.14
13.63
15.04
16.37
17.53
18.39
18.77
18.48
17.21
14.67
10.71
5.48
-0.43
-6.05
-10.42
-12.86
-13.25
-12.05
-10.02
-7.92
-6.27
-5.29
-4.91
-4.99
-5.39
-6.01
-6.76
-7.56
-8.36
-9.16
-10.18
-11.76
-14.36
-18.25
-23.27
-28.70
-33.31
-35.72
-34.96
-30.82
-24.05
-16.03
-8.24
-1.83
2.77
5.71
7.45
8.41
8.81
8.67
7.98
6.94
5.96
5.52
5.96
7.22
8.80
9.94
9.93
8.46
5.74
2.48
-0.51
-2.61
-3.73
-4.27
-4.98
-6.55
-9.27
-12.89
-16.72
-19.98
-22.18
-23.40
-24.25
-25.59
-28.15
-32.17
-37.29
-42.79
-47.94
-52.23
-55.50
-57.88
-59.72
-61.67
-64.79
-70.47
-79.83
-92.85
-107.55
-119.82
-124.19
-115.45
-90.31
-48.66
6.24
68.48
130.97
186.79
230.31
257.77
267.45
259.67
236.76
203.04
164.29
126.94
96.65
76.76
67.34
65.34
66.09
65.42
61.34
54.44
46.82
40.36
35.29
30.05
22.14
9.74
-7.33
-27.40
-47.62
-65.10
-77.77
-84.77
-86.41
-83.78
-78.38
-71.71
-65.04
-59.21
-54.64
-51.38
-49.30
-47.99
-46.86
-45.22
-42.44
-38.17
-32.60
-26.41
-20.49
-15.63
-12.17
-9.90
-8.28
-6.74
-4.99
-3.13
-1.52
-0.55
-0.46
-1.29
-2.88
-4.99
-7.33
-9.56
-11.39
-12.58
-13.05
-12.86
-12.23
-11.44
-10.70
-10.10
-9.60
-9.14
-8.73
-8.48
-8.58
-9.20
-10.41
-12.15
-14.28
-16.61
-19.07
-21.68
-24.58
-27.87
-31.53
-35.25
-38.53
-40.71
-41.21
-39.61
-35.88
-30.24
-23.23
-15.51
-7.75
-0.57
5.58
10.49
14.12
16.65
18.34
19.44
20.13
20.53
20.70
20.68
20.54
20.32
20.08
19.89
19.82
19.91
20.17
20.50
20.78
20.82
20.49
19.75
18.69
17.44
16.11
14.69
13.08
11.14
8.81
6.11
3.21
0.30
-2.48
-5.05
-7.43
-9.77
-12.26
-15.14
-18.60
-22.73
-27.36
-32.04
-36.06
-38.65
-39.17
-37.35
-33.27
-27.43
-20.58
-13.56
-7.14
-1.90
1.86
4.12
5.06
4.99
4.25
3.22
2.28
1.82
2.15
3.47
5.77
8.87
12.47
16.31
20.23
24.15
27.94
31.36
33.97
35.27
34.80
32.27
27.59
21.03
13.18
5.06
-1.98
-6.54
-7.56
-4.71
1.51
9.86
18.77
26.67
32.26
34.59
33.06
27.54
18.50
7.20
-4.53
-14.67
-21.64
-24.69
-24.06
-20.63
-15.51
-9.66
-3.75
1.74
6.38
9.78
11.75
12.40
12.20
11.79
11.66
11.94
12.33
12.32
11.53
9.85
7.51
4.89
2.32
-0.05
-2.20
-4.13
-5.74
-6.81
-7.18
-6.86
-6.20
-5.65
-5.63
-6.32
-7.59
-9.13
-10.64
-11.99
-13.27
-14.64
-16.23
-17.93
-19.38
-20.04
-19.43
-17.24
-13.53
-8.76
-3.56
1.37
5.59
8.99
11.71
13.97
15.90
17.41
18.31
18.44
17.83
16.73
15.56
14.69
14.28
14.30
14.53
14.71
14.67
14.36
13.81
13.11
12.33
11.47
10.55
9.55
8.48
7.34
6.13
4.88
3.62
2.34
0.97
-0.63
-2.67
-5.26
-8.30
-11.48
-14.30
-16.30
-17.19
-16.94
-15.72
-13.76
-11.30
-8.50
-5.54
-2.61
0.16
2.75
5.27
7.96
11.01
14.40
17.83
20.76
22.56
22.83
21.51
18.95
15.78
12.69
10.21
8.64
8.06
8.44
9.67
11.57
13.88
16.16
17.90
18.63
18.11
16.36
13.65
10.33
6.76
3.16
-0.30
-3.52
-6.43
-9.02
-11.33
-13.45
-15.52
-17.72
-20.16
-22.92
-25.91
-28.76
-30.88
-31.58
-30.23
-26.61
-20.99
-14.16
-7.12
-0.77
4.38
8.27
11.14
13.31
14.96
16.06
16.52
16.34
15.70
14.89
14.22
13.85
13.72
13.68
13.61
13.50
13.45
13.57
13.85
14.17
14.27
13.95
13.11
11.76
10.01
7.97
5.77
3.48
1.17
-1.12
-3.39
-5.72
-8.21
-10.90
-13.77
-16.68
-19.49
-22.14
-24.61
-26.91
-28.92
-30.31
-30.57
-29.22
-25.98
-20.99
-14.74
-7.99
-1.48
4.24
8.86
12.34
14.73
16.13
16.64
16.37
15.49
14.26
12.97
11.94
11.38
11.33
11.69
12.28
12.90
13.47
13.96
14.47
15.09
15.82
16.51
16.87
16.51
15.06
12.34
8.38
3.46
-1.99
-7.53
-12.76
-17.40
-21.18
-23.85
-25.19
-25.11
-23.78
-21.70
-19.53
-17.99
-17.54
-18.29
-19.95
-21.98
-23.62
-24.16
-22.99
-19.76
-14.49
-7.64
-0.03
7.36
13.65
18.29
21.20
22.64
23.02
22.68
21.78
20.37
18.51
16.39
14.31
12.64
11.64
11.42
11.87
12.78
13.89
14.98
15.83
16.25
16.05
15.09
13.38
11.04
8.38
5.72
3.29
1.16
-0.82
-2.96
-5.55
-8.71
-12.35
-16.10
-19.47
-22.00
-23.40
-23.65
-23.08
-22.29
-21.95
-22.63
-24.53
-27.41
-30.52
-32.88
-33.53
-31.87
-27.83
-21.84
-14.68
-7.22
-0.19
5.95
11.02
15.11
18.41
21.12
23.34
25.05
26.20
26.75
26.74
26.31
25.60
24.75
23.84
22.95
22.26
21.98
22.35
23.40
24.96
26.58
27.83
28.45
28.48
28.18
27.80
27.30
26.32
24.30
20.81
15.79
9.68
3.24
-2.70
-7.61
-11.30
-13.92
-15.83
-17.39
-18.95
-20.83
-23.23
-26.19
-29.53
-32.82
-35.43
-36.71
-36.18
-33.61
-29.08
-22.97
-15.83
-8.38
-1.36
4.62
9.16
12.15
13.70
14.00
13.19
11.32
8.52
5.06
1.43
-1.75
-3.93
-4.85
-4.54
-3.28
-1.39
0.77
2.90
4.69
5.83
6.16
5.70
4.72
3.67
2.95
2.75
3.03
3.57
4.05
4.25
4.01
3.25
1.93
0.04
-2.38
-5.20
-8.20
-11.16
-13.93
-16.53
-19.12
-21.95
-25.17
-28.70
-32.12
-34.78
-36.03
-35.42
-32.95
-29.04
-24.40
-19.77
-15.65
-12.13
-9.05
-6.13
-3.23
-0.47
1.89
3.65
4.85
5.86
7.20
9.31
12.25
15.75
19.29
22.45
25.12
27.44
29.64
31.78
33.57
34.50
34.05
31.96
28.38
23.83
18.93
14.16
9.69
5.47
1.36
-2.65
-6.36
-9.52
-11.96
-13.76
-15.22
-16.68
-18.35
-20.17
-21.97
-23.61
-25.16
-26.86
-28.87
-31.04
-32.81
-33.36
-31.94
-28.19
-22.33
-15.09
-7.43
-0.25
5.84
10.61
14.08
16.38
17.66
18.07
17.78
17.02
16.09
15.24
14.65
14.33
14.15
13.95
13.64
13.21
12.75
12.37
12.11
11.94
11.68
11.17
10.25
8.88
7.10
5.02
2.79
0.54
-1.67
-3.84
-6.03
-8.31
-10.68
-13.12
-15.54
-17.88
-20.13
-22.30
-24.36
-26.25
-27.90
-29.27
-30.42
-31.43
-32.31
-32.83
-32.55
-30.90
-27.40
-21.90
-14.62
-6.09
2.95
11.84
20.00
26.98
32.48
36.32
38.48
39.11
38.49
36.97
34.90
32.62
30.36
28.38
26.88
25.97
25.64
25.70
25.79
25.54
24.70
23.23
21.32
19.27
17.32
15.65
14.34
13.50
13.27
13.73
14.81
16.16
17.28
17.68
17.14
15.80
14.04
12.34
11.04
10.23
9.74
9.13
7.70
4.64
-0.67
-8.38
-17.85
-27.78
-36.47
-42.46
-44.95
-44.11
-40.85
-36.50
-32.26
-28.94
-26.87
-25.97
-25.80
-25.55
-23.96
-19.58
-11.25
1.19
16.39
31.45
42.71
46.89
42.31
29.48
10.81
-10.23
-30.27
-46.77
-58.35
-64.71
-66.47
-65.07
-62.56
-61.15
-62.48
-67.02
-73.68
-80.25
-84.21
-83.76
-78.54
-69.66
-59.16
-49.13
-41.05
-35.46
-32.17
-30.51
-29.72
-28.88
-26.93
-22.63
-14.80
-2.76
13.27
31.92
50.96
67.90
80.77
88.67
91.85
91.35
88.49
84.39
79.75
74.89
70.00
65.28
61.04
57.53
54.88
52.92
51.22
49.33
46.93
44.00
40.74
37.38
33.99
30.34
26.09
21.02
15.26
9.30
3.79
-0.71
-3.98
-6.09
-7.32
-7.93
-8.26
-8.66
-9.57
-11.43
-14.51
-18.70
-23.54
-28.35
-32.52
-35.67
-37.66
-38.44
-37.92
-35.86
-32.07
-26.54
-19.66
-12.12
-4.76
1.73
6.97
10.87
13.47
14.88
15.12
14.26
12.54
10.49
8.76
7.96
8.35
9.73
11.57
13.27
14.42
14.90
14.81
14.31
13.55
12.65
11.77
11.05
10.53
10.01
9.09
7.34
4.55
0.93
-3.00
-6.58
-9.35
-11.22
-12.32
-12.89
-13.15
-13.21
-13.25
-13.59
-14.62
-16.70
-19.87
-23.74
-27.49
-30.14
-30.82
-29.06
-24.98
-19.17
-12.49
-5.82
0.14
5.01
8.67
11.20
12.73
13.41
13.39
12.76
11.57
9.78
7.33
4.22
0.59
-3.27
-6.93
-9.95
-12.03
-13.05
-13.12
-12.48
-11.35
-9.88
-8.15
-6.32
-4.70
-3.69
-3.68
-4.82
-6.87
-9.32
-11.56
-13.16
-13.94
-13.93
-13.18
-11.76
-9.84
-7.86
-6.58
-6.77
-8.78
-12.25
-16.08
-18.88
-19.62
-17.99
-14.51
-10.07
-5.54
-1.41
2.25
5.51
8.37
10.67
12.26
13.08
13.38
13.57
14.15
15.44
17.45
19.80
21.87
23.13
23.30
22.61
21.62
21.00
21.12
21.87
22.72
22.97
22.18
20.26
17.51
14.35
11.13
7.98
4.85
1.67
-1.49
-4.46
-7.04
-9.06
-10.52
-11.50
-12.18
-12.76
-13.32
-13.80
-14.02
-13.62
-12.28
-9.77
-6.12
-1.63
3.24
7.98
12.22
15.78
18.65
20.92
22.66
23.82
24.30
23.96
22.77
20.86
18.55
16.30
14.53
13.52
13.29
13.65
14.25
14.74
14.91
14.73
14.34
13.89
13.49
13.11
12.59
11.73
10.36
8.40
5.88
2.94
-0.28
-3.62
-6.96
-10.20
-13.26
-16.14
-18.86
-21.52
-24.20
-26.93
-29.61
-31.92
-33.36
-33.31
-31.20
-26.78
-20.35
-12.72
-5.13
1.20
5.39
7.19
6.88
5.11
2.58
-0.02
-2.06
-2.88
-1.86
1.33
6.52
12.96
19.59
25.43
29.97
33.24
35.56
37.16
37.96
37.57
35.62
32.01
27.06
21.32
15.36
9.48
3.66
-2.30
-8.58
-15.18
-21.79
-27.85
-32.80
-36.20
-38.02
-38.66
-38.84
-39.25
-40.22
-41.49
-42.27
-41.59
-38.69
-33.41
-26.27
-18.24
-10.41
-3.59
1.86
5.97
8.94
10.93
11.92
11.85
10.70
8.71
6.39
4.42
3.50
4.07
6.20
9.56
13.50
17.31
20.38
22.36
23.21
23.06
22.09
20.39
17.85
14.32
9.68
4.10
-2.03
-8.10
-13.55
-18.03
-21.49
-24.10
-26.21
-28.15
-30.23
-32.69
-35.69
-39.27
-43.22
-47.04
-49.94
-51.03
-49.60
-45.39
-38.75
-30.56
-22.00
-14.11
-7.53
-2.26
2.16
6.35
10.81
15.60
20.38
24.65
28.08
30.64
32.70
34.72
37.07
39.79
42.67
45.38
47.71
49.64
51.34
52.94
54.39
55.46
55.88
55.56
54.76
53.99
53.80
54.40
55.41
55.88
54.60
50.58
43.46
33.61
21.83
8.88
-4.82
-19.23
-34.29
-49.31
-62.70
-72.20
-75.45
-70.72
-57.47
-36.34
-9.11
21.59
52.34
79.10
97.64
104.43
97.73
78.29
49.30
15.48
-18.26
-48.12
-71.96
-89.13
-99.87
-104.70
-104.21
-99.21
-90.96
-81.20
-71.85
-64.60
-60.59
-60.20
-63.12
-68.52
-75.16
-81.51
-85.98
-87.14
-83.97
-76.14
-64.04
-48.79
-32.01
-15.67
-1.74
8.16
13.22
13.75
11.18
7.70
5.49
6.08
9.92
16.47
24.54
32.73
39.82
44.96
47.75
48.22
46.76
43.99
40.58
37.08
33.81
30.98
28.61
26.76
25.34
24.29
23.46
22.82
22.47
22.68
23.70
25.62
28.20
30.97
33.32
34.70
34.78
33.45
30.83
27.20
22.93
18.42
13.99
9.80
5.84
1.96
-2.06
-6.50
-11.59
-17.47
-24.05
-30.98
-37.61
-43.18
-47.00
-48.65
-48.02
-45.19
-40.35
-33.69
-25.40
-15.82
-5.53
4.59
13.48
20.18
24.16
25.52
24.97
23.49
21.91
20.54
19.14
17.21
14.42
10.94
7.36
4.39
2.43
1.32
0.57
-0.30
-1.37
-2.41
-2.98
-2.90
-2.38
-2.06
-2.69
-4.78
-8.41
-13.23
-18.60
-23.85
-28.48
-32.38
-35.79
-39.32
-43.65
-49.15
-55.52
-61.57
-65.44
-65.20
-59.64
-48.90
-34.50
-18.84
-4.28
7.70
16.76
23.49
28.78
33.24
37.07
40.12
42.22
43.44
44.01
44.14
43.82
42.74
40.52
36.99
32.38
27.31
22.56
18.75
16.09
14.38
13.23
12.32
11.57
11.15
11.28
11.92
12.75
13.21
12.77
11.22
8.65
5.40
1.84
-1.77
-5.35
-8.90
-12.44
-15.92
-19.15
-21.83
-23.57
-23.97
-22.68
-19.57
-14.76
-8.61
-1.71
5.30
11.80
17.32
21.57
24.48
26.19
26.94
26.98
26.46
25.34
23.52
20.98
17.97
14.93
12.38
10.61
9.64
9.20
9.00
8.93
9.08
9.62
10.58
11.66
12.28
11.86
10.08
7.04
3.20
-0.78
-4.34
-7.15
-9.16
-10.48
-11.32
-11.89
-12.48
-13.35
-14.79
-16.96
-19.73
-22.62
-24.81
-25.39
-23.66
-19.39
-12.91
-5.01
3.31
11.09
17.57
22.25
24.90
25.54
24.48
22.22
19.39
16.53
14.02
11.96
10.27
8.83
7.56
6.50
5.80
5.59
5.91
6.64
7.56
8.34
8.72
8.50
7.58
5.94
3.62
0.75
-2.44
-5.63
-8.50
-10.85
-12.72
-14.41
-16.39
-19.10
-22.73
-27.11
-31.77
-36.03
-39.23
-40.86
-40.59
-38.31
-34.10
-28.23
-21.17
-13.51
-5.89
1.15
7.32
12.60
17.13
20.96
23.97
25.80
26.11
24.80
22.20
19.05
16.15
14.09
12.95
12.44
12.07
11.50
10.64
9.57
8.32
6.73
4.53
1.49
-2.30
-6.43
-10.35
-13.59
-15.95
-17.49
-18.44
-19.05
-19.52
-20.09
-21.01
-22.43
-24.26
-26.02
-26.99
-26.43
-24.01
-19.90
-14.73
-9.25
-4.04
0.66
4.84
8.50
11.52
13.61
14.56
14.38
13.40
12.18
11.24
10.86
11.07
11.66
12.40
13.18
14.00
14.94
15.96
16.85
17.25
16.83
15.41
13.15
10.44
7.76
5.44
3.53
1.84
0.05
-2.13
-4.82
-8.05
-11.76
-15.86
-20.12
-24.10
-27.17
-28.62
-27.91
-24.89
-19.91
-13.74
-7.30
-1.38
3.60
7.48
10.34
12.25
13.18
13.03
11.78
9.61
7.01
4.73
3.51
3.83
5.76
8.91
12.60
16.13
18.92
20.67
21.26
20.76
19.29
17.04
14.25
11.15
7.99
4.93
2.01
-0.80
-3.53
-6.18
-8.69
-11.02
-13.21
-15.43
-17.89
-20.81
-24.18
-27.75
-30.98
-33.17
-33.65
-31.96
-28.00
-22.07
-14.82
-7.09
0.29
6.66
11.56
14.80
16.38
16.48
15.42
13.65
11.67
9.97
8.90
8.59
8.95
9.73
10.61
11.38
11.91
12.18
12.22
12.06
11.65
10.90
9.76
8.16
6.13
3.72
1.01
-1.93
-5.03
-8.26
-11.57
-14.86
-18.06
-21.08
-23.92
-26.64
-29.27
-31.73
-33.72
-34.73
-34.16
-31.54
-26.76
-20.21
-12.64
-4.96
2.07
7.98
12.66
16.15
18.54
19.84
20.03
19.22
17.66
15.78
14.01
12.65
11.80
11.37
11.26
11.48
12.21
13.65
15.79
18.36
20.76
22.28
22.32
20.58
17.13
12.32
6.62
0.52
-5.55
-11.19
-16.11
-20.10
-23.11
-25.38
-27.36
-29.61
-32.55
-36.19
-40.03
-43.10
-44.36
-42.99
-38.79
-32.18
-24.05
-15.46
-7.30
-0.18
5.64
10.14
13.48
15.90
17.63
18.88
19.78
20.43
20.95
21.44
22.06
22.85
23.65
24.16
24.00
22.96
21.12
18.89
16.75
15.03
13.65
12.27
10.38
7.71
4.31
0.65
-2.65
-5.08
-6.45
-6.94
-6.97
-7.03
-7.53
-8.72
-10.77
-13.73
-17.50
-21.64
-25.39
-27.76
-27.85
-25.14
-19.81
-12.62
-4.61
3.18
10.08
15.79
20.28
23.67
26.06
27.52
28.18
28.17
27.68
26.86
25.84
24.65
23.35
21.98
20.61
19.35
18.31
17.56
17.09
16.76
16.33
15.57
14.29
12.54
10.51
8.47
6.65
5.09
3.66
2.10
0.19
-2.13
-4.73
-7.37
-9.80
-11.93
-13.86
-15.86
-18.22
-21.09
-24.37
-27.64
-30.27
-31.54
-30.95
-28.26
-23.63
-17.49
-10.46
-3.17
3.76
9.86
14.72
18.07
19.81
20.02
19.00
17.21
15.14
13.19
11.64
10.58
9.99
9.78
9.84
10.11
10.54
11.10
11.75
12.40
12.84
12.84
12.16
10.74
8.70
6.37
4.11
2.17
0.57
-0.89
-2.49
-4.41
-6.68
-9.22
-11.93
-14.77
-17.70
-20.61
-23.26
-25.38
-26.80
-27.51
-27.70
-27.46
-26.71
-25.08
-22.22
-18.01
-12.70
-6.95
-1.46
3.29
7.17
10.32
12.93
15.03
16.49
17.17
17.06
16.43
15.69
15.23
15.31
15.95
16.95
18.10
19.20
20.24
21.33
22.66
24.38
26.45
28.66
30.67
32.10
32.79
32.84
32.67
32.90
34.08
36.49
40.04
44.30
48.69
52.77
56.27
59.13
61.37
63.02
64.23
65.18
65.81
65.47
62.70
55.50
42.14
22.21
-2.80
-29.63
-54.30
-73.41
-85.20
-89.87
-89.13
-85.39
-80.88
-77.29
-75.60
-76.22
-79.06
-83.60
-88.93
-93.75
-96.68
-96.37
-92.08
-83.84
-72.72
-60.60
-49.62
-41.61
-37.44
-36.84
-38.60
-41.18
-43.34
-44.61
-45.22
-45.84
-47.01
-48.78
-50.48
-51.07
-49.59
-45.55
-39.18
-31.10
-21.94
-11.91
-0.72
12.21
27.30
44.41
62.71
80.84
97.29
110.84
120.92
127.61
131.48
133.15
133.04
131.23
127.59
122.07
114.96
107.03
99.29
92.72
88.19
86.46
88.29
94.38
104.96
119.15
134.69
148.21
156.31
156.87
150.03
138.00
123.93
110.32
97.90
85.51
71.02
52.63
29.80
3.43
-24.73
-52.97
-80.23
-106.04
-130.11
-151.80
-169.90
-183.12
-190.76
-193.26
-192.10
-189.20
-185.95
-182.63
-178.40
-171.85
-161.82
-147.90
-130.63
-111.31
-91.68
-73.72
-59.26
-49.55
-44.83
-44.05
-45.07
-45.40
-43.17
-37.88
-30.50
-22.88
-16.70
-12.68
-10.31
-8.24
-5.07
-0.00
6.87
14.87
23.17
31.26
39.02
46.35
52.72
56.90
57.18
52.22
41.86
27.59
12.24
-0.95
-9.54
-12.65
-10.94
-5.99
0.62
7.97
15.93
24.81
34.86
45.94
57.41
68.37
78.07
86.09
92.42
97.21
100.50
102.04
101.29
97.78
91.37
82.46
71.95
61.00
50.72
41.90
34.79
29.12
24.16
18.82
11.93
2.72
-8.83
-21.83
-34.81
-46.43
-56.13
-64.33
-72.01
-79.85
-87.59
-93.95
-97.22
-96.16
-90.63
-81.66
-71.04
-60.57
-51.52
-44.38
-39.00
-34.76
-30.81
-26.21
-20.07
-11.75
-1.04
11.78
25.86
40.01
52.89
63.26
70.13
72.96
71.62
66.46
58.20
47.81
36.45
25.28
15.25
6.91
0.38
-4.63
-8.52
-11.65
-14.19
-16.22
-17.91
-19.59
-21.67
-24.34
-27.45
-30.51
-32.92
-34.29
-34.63
-34.33
-34.00
-34.20
-35.32
-37.54
-40.82
-44.89
-49.31
-53.41
-56.43
-57.69
-56.74
-53.57
-48.53
-42.26
-35.45
-28.77
-22.66
-17.38
-13.01
-9.55
-6.96
-5.24
-4.36
-4.22
-4.62
-5.34
-6.19
-7.01
-7.70
-8.14
-8.11
-7.36
-5.74
-3.41
-0.83
1.33
2.46
2.38
1.37
0.19
-0.35
0.27
2.05
4.44
6.55
7.49
6.68
3.98
-0.32
-5.57
-10.81
-14.96
-17.00
-16.23
-12.56
-6.66
0.24
6.65
11.30
13.54
13.39
11.39
8.25
4.59
0.78
-2.94
-6.33
-9.07
-10.69
-10.70
-8.82
-5.13
-0.22
4.91
9.08
11.30
11.03
8.35
3.84
-1.62
-7.14
-11.97
-15.52
-17.38
-17.35
-15.53
-12.51
-9.34
-7.36
-7.68
-10.80
-16.32
-23.00
-29.11
-32.98
-33.42
-29.98
-22.97
-13.11
-1.26
11.79
25.36
38.66
50.56
59.71
64.76
64.98
60.69
53.22
44.57
36.62
30.55
26.60
24.28
22.86
21.77
20.84
20.17
19.94
20.17
20.66
21.04
20.88
19.93
18.16
15.84
13.32
10.89
8.61
6.24
3.43
-0.03
-4.04
-8.21
-12.00
-15.01
-17.10
-18.54
-19.77
-21.26
-23.36
-26.12
-29.34
-32.54
-35.14
-36.51
-36.17
-33.87
-29.72
-24.18
-17.91
-11.66
-6.02
-1.38
2.16
4.69
6.38
7.35
7.68
7.46
6.85
6.12
5.56
5.39
5.68
6.27
6.94
7.48
7.84
8.11
8.34
8.54
8.57
8.23
7.39
6.07
4.42
2.60
0.74
-1.07
-2.83
-4.50
-6.06
-7.47
-8.74
-9.98
-11.32
-12.89
-14.76
-16.94
-19.36
-21.81
-23.91
-25.20
-25.20
-23.59
-20.37
-15.92
-10.83
-5.73
-1.10
2.89
6.23
8.97
11.09
12.45
12.96
12.64
11.75
10.65
9.77
9.38
9.51
10.01
10.62
11.14
11.50
11.73
11.86
11.90
11.78
11.40
10.71
9.70
8.44
7.01
5.48
3.87
2.18
0.40
-1.45
-3.36
-5.30
-7.22
-9.11
-10.99
-12.94
-15.06
-17.48
-20.20
-22.99
-25.39
-26.78
-26.60
-24.55
-20.74
-15.66
-10.03
-4.53
0.36
4.42
7.61
10.01
11.64
12.53
12.71
12.27
11.43
10.42
9.49
8.78
8.35
8.17
8.21
8.41
8.76
9.21
9.67
10.03
10.11
9.80
9.06
7.99
6.71
5.40
4.13
2.89
1.62
0.24
-1.29
-2.89
-4.46
-5.90
-7.19
-8.42
-9.75
-11.40
-13.50
-16.09
-19.02
-21.97
-24.50
-26.09
-26.29
-24.82
-21.68
-17.15
-11.72
-5.98
-0.46
4.44
8.52
11.71
14.06
15.68
16.64
17.06
17.01
16.61
16.03
15.43
14.96
14.70
14.68
14.84
15.14
15.50
15.91
16.33
16.70
16.92
16.85
16.37
15.44
14.12
12.57
10.99
9.58
8.44
7.51
6.61
5.47
3.88
1.79
-0.66
-3.13
-5.34
-7.10
-8.41
-9.47
-10.54
-11.90
-13.73
-16.09
-18.88
-21.81
-24.38
-26.05
-26.27
-24.72
-21.42
-16.74
-11.29
-5.77
-0.78
3.33
6.46
8.64
9.96
10.54
10.43
9.76
8.72
7.59
6.67
6.18
6.21
6.69
7.46
8.36
9.26
10.06
10.67
11.02
11.04
10.74
10.12
9.25
8.18
6.99
5.75
4.49
3.28
2.13
0.98
-0.29
-1.76
-3.50
-5.45
-7.46
-9.38
-11.09
-12.62
-14.14
-15.86
-18.01
-20.61
-23.50
-26.28
-28.40
-29.31
-28.63
-26.21
-22.21
-17.00
-11.10
-5.09
0.51
5.30
8.99
11.51
12.92
13.44
13.34
12.89
12.29
11.67
11.15
10.82
10.79
11.15
11.91
12.98
14.20
15.36
16.28
16.84
16.98
16.67
15.96
14.95
13.77
12.60
11.53
10.59
9.71
8.73
7.50
5.93
3.99
1.77
-0.63
-3.04
-5.41
-7.69
-9.98
-12.43
-15.23
-18.46
-22.04
-25.62
-28.67
-30.51
-30.61
-28.68
-24.83
-19.50
-13.33
-6.98
-0.99
4.27
8.62
11.93
14.18
15.38
15.61
15.05
13.97
12.64
11.32
10.21
9.45
9.15
9.36
10.09
11.20
12.53
13.82
14.83
15.41
15.47
15.11
14.42
13.53
12.49
11.24
9.72
7.86
5.67
3.24
0.69
-1.82
-4.20
-6.41
-8.50
-10.62
-12.92
-15.61
-18.81
-22.55
-26.69
-30.85
-34.46
-36.87
-37.53
-36.12
-32.67
-27.54
-21.38
-14.96
-9.00
-4.03
-0.34
2.07
3.34
3.69
3.31
2.35
0.85
-1.10
-3.37
-5.71
-7.78
-9.17
-9.58
-8.81
-6.90
-4.05
-0.58
3.16
6.96
10.70
14.41
18.07
21.59
24.73
27.19
28.72
29.27
28.99
28.19
27.15
25.93
24.44
22.42
19.66
16.08
11.86
7.24
2.51
-2.11
-6.40
-10.03
-12.58
-13.57
-12.66
-9.79
-5.31
0.10
5.63
10.56
14.43
17.00
18.27
18.37
17.50
15.90
13.90
11.85
10.08
8.81
8.11
7.89
7.92
7.97
7.91
7.70
7.43
7.25
7.21
7.28
7.29
6.99
6.15
4.64
2.51
-0.04
-2.68
-5.08
-7.04
-8.53
-9.77
-11.11
-12.93
-15.45
-18.64
-22.09
-25.13
-26.91
-26.77
-24.41
-20.01
-14.17
-7.68
-1.29
4.47
9.34
13.22
16.10
17.95
18.75
18.52
17.43
15.82
14.16
13.01
12.86
14.03
16.54
20.10
24.22
28.22
31.46
33.37
33.64
32.34
29.97
27.38
25.47
24.84
25.47
26.60
27.06
25.71
21.95
15.91
8.34
0.21
-7.66
-14.84
-21.29
-27.17
-32.73
-38.15
-43.50
-48.65
-53.27
-56.77
-58.47
-57.77
-54.41
-48.63
-41.09
-32.78
-24.73
-17.72
-12.27
-8.47
-6.16
-5.00
-4.59
-4.56
-4.66
-4.75
-4.76
-4.70
-4.55
-4.27
-3.69
-2.64
-0.89
1.73
5.24
9.53
14.31
19.23
23.93
28.11
31.48
33.83
35.04
35.12
34.22
32.62
30.64
28.51
26.37
24.18
21.85
19.27
16.37
13.21
10.01
7.20
5.31
4.85
6.09
8.92
12.79
16.79
19.93
21.42
20.78
17.93
13.13
6.75
-0.78
-9.03
-17.58
-25.96
-33.66
-40.21
-45.28
-48.79
-50.89
-51.97
-52.50
-52.91
-53.48
-54.35
-55.53
-56.94
-58.53
-60.27
-62.18
-64.28
-66.57
-68.99
-71.45
-73.86
-76.18
-78.45
-80.72
-83.02
-85.24
-87.16
-88.48
-88.82
-87.68
-84.38
-78.06
-67.83
-53.06
-33.80
-10.88
14.16
39.52
63.61
85.46
104.75
121.52
135.92
147.96
157.50
164.47
168.83
170.65
169.91
166.51
160.32
151.39
140.10
127.21
113.65
100.27
87.64
76.02
65.39
55.66
46.74
38.52
30.84
23.40
15.93
8.21
0.26
-7.72
-15.44
-22.63
-29.20
-35.25
-40.97
-46.59
-52.29
-58.27
-64.79
-72.08
-80.23
-88.90
-97.21
-103.86
-107.55
-107.47
-103.73
-97.38
-90.06
-83.32
-78.18
-74.77
-72.54
-70.45
-67.27
-61.73
-52.71
-39.55
-22.42
-2.64
17.33
34.39
45.63
49.27
45.12
34.47
19.55
2.70
-14.19
-29.95
-44.22
-57.32
-70.10
-83.64
-98.80
-115.75
-133.69
-151.03
-165.81
-176.26
-180.88
-178.21
-166.59
-144.65
-112.36
-72.07
-28.58
12.30
46.11
71.70
91.54
109.99
130.62
154.11
178.04
198.60
212.86
220.24
222.33
221.40
218.80
214.30
206.60
194.66
178.79
160.75
142.98
127.49
114.80
103.73
92.20
78.37
61.79
43.93
27.85
17.05
14.38
21.17
37.07
60.46
89.01
120.01
150.49
177.10
196.26
204.77
200.79
184.70
159.38
129.41
99.54
73.12
51.18
32.74
15.82
-1.21
-18.88
-36.62
-53.42
-68.56
-81.89
-93.64
-103.94
-112.50
-118.67
-121.79
-121.62
-118.50
-113.23
-106.72
-99.64
-92.26
-84.52
-76.31
-67.71
-59.08
-51.03
-44.15
-38.71
-34.56
-31.17
-27.94
-24.53
-20.97
-17.68
-15.18
-13.80
-13.49
-13.86
-14.37
-14.53
-14.05
-12.84
-10.92
-8.39
-5.44
-2.33
0.52
2.65
3.69
3.46
2.02
-0.40
-3.52
-7.11
-11.10
-15.47
-20.18
-25.04
-29.61
-33.24
-35.21
-34.96
-32.26
-27.34
-20.81
-13.46
-6.06
0.87
7.11
12.64
17.43
21.35
23.99
24.82
23.40
19.62
13.91
7.18
0.63
-4.62
-7.76
-8.48
-6.92
-3.55
1.00
6.04
10.89
14.79
17.09
17.26
15.08
10.74
4.74
-2.24
-9.62
-17.07
-24.54
-32.15
-39.90
-47.64
-55.03
-61.73
-67.56
-72.58
-77.05
-81.26
-85.43
-89.60
-93.57
-96.96
-99.17
-99.58
-97.56
-92.72
-84.94
-74.52
-62.08
-48.46
-34.59
-21.25
-9.02
1.86
11.33
19.41
26.05
31.13
34.51
36.25
36.72
36.60
36.60
37.17
38.31
39.55
40.14
39.45
37.18
33.51
28.99
24.23
19.76
15.80
12.39
9.41
6.70
4.14
1.61
-0.97
-3.64
-6.41
-9.18
-11.85
-14.33
-16.61
-18.81
-21.13
-23.80
-27.02
-30.76
-34.72
-38.28
-40.60
-40.88
-38.61
-33.79
-26.99
-19.17
-11.35
-4.36
1.38
5.82
9.16
11.68
13.59
15.00
15.95
16.45
16.54
16.33
15.98
15.66
15.55
15.71
16.20
16.98
18.00
19.12
20.18
20.89
20.95
20.18
18.54
16.24
13.55
10.75
7.98
5.23
2.43
-0.49
-3.49
-6.45
-9.21
-11.68
-13.87
-15.93
-18.07
-20.60
-23.77
-27.70
-32.19
-36.75
-40.57
-42.73
-42.52
-39.68
-34.52
-27.89
-20.86
-14.44
-9.25
-5.48
-2.97
-1.40
-0.42
0.19
0.54
0.71
0.68
0.42
-0.09
-0.83
-1.64
-2.21
-2.18
-1.24
0.71
3.52
6.88
10.40
13.70
16.47
18.46
19.46
19.31
18.00
15.64
12.47
8.77
4.83
0.83
-3.14
-7.12
-11.29
-15.91
-21.20
-27.23
-33.65
-39.70
-44.33
-46.50
-45.57
-41.59
-35.30
-27.88
-20.52
-14.03
-8.61
-3.99
0.38
5.04
10.35
16.39
23.02
29.94
36.78
43.22
49.03
54.13
58.62
62.59
66.11
69.06
71.22
72.30
72.13
70.67
68.05
64.47
60.21
55.62
51.14
47.19
44.06
41.77
39.94
38.00
35.34
31.61
26.75
20.94
14.37
7.19
-0.55
-8.76
-17.23
-25.62
-33.55
-40.67
-46.62
-51.06
-53.54
-53.67
-51.30
-46.72
-40.72
-34.45
-29.04
-25.34
-23.65
-23.81
-25.33
-27.61
-30.16
-32.57
-34.59
-36.01
-36.68
-36.54
-35.58
-33.74
-30.84
-26.57
-20.49
-12.25
-1.72
10.82
24.65
38.73
51.85
62.88
70.92
75.45
76.31
73.79
68.52
61.40
53.40
45.40
37.94
31.21
24.98
18.82
12.23
4.93
-2.99
-11.08
-18.53
-24.44
-28.04
-28.89
-27.09
-23.24
-18.26
-13.12
-8.61
-5.17
-2.92
-1.78
-1.60
-2.26
-3.68
-5.74
-8.33
-11.29
-14.54
-18.06
-21.88
-26.00
-30.35
-34.78
-39.11
-43.21
-47.07
-50.86
-54.90
-59.59
-65.23
-71.89
-79.26
-86.69
-93.33
-98.37
-101.19
-101.56
-99.58
-95.53
-89.71
-82.27
-73.26
-62.59
-50.28
-36.51
-21.64
-6.08
9.80
25.75
41.65
57.50
73.37
89.35
105.48
121.59
137.18
151.27
162.60
169.96
172.54
170.30
163.83
154.04
141.71
127.24
110.82
92.72
73.67
54.85
37.56
22.68
10.37
0.15
-8.86
-17.20
-24.85
-31.16
-35.22
-36.38
-34.65
-30.86
-26.38
-22.76
-21.15
-22.00
-24.84
-28.47
-31.34
-32.06
-29.90
-24.98
-18.17
-10.70
-3.76
1.84
5.80
8.21
9.41
9.74
9.50
8.84
7.79
6.21
3.86
0.47
-4.03
-9.42
-15.04
-19.84
-22.69
-22.68
-19.48
-13.58
-6.18
1.18
7.19
11.26
13.65
15.25
17.02
19.37
21.89
23.53
23.05
19.51
12.49
2.06
-11.28
-26.66
-42.57
-56.94
-67.28
-71.34
-67.95
-57.51
-41.93
-23.78
-5.18
12.95
30.63
48.00
64.38
78.01
86.70
88.90
84.55
75.14
62.86
49.66
36.54
23.69
11.15
-0.46
-9.87
-15.62
-16.84
-13.95
-8.56
-2.96
0.83
1.69
-0.23
-3.79
-7.42
-9.82
-10.44
-9.38
-7.19
-4.51
-1.95
-0.05
0.62
-0.51
-3.66
-8.62
-14.57
-20.37
-24.99
-27.88
-29.02
-28.76
-27.46
-25.19
-21.84
-17.35
-12.14
-7.09
-3.27
-1.41
-1.48
-2.79
-4.32
-5.31
-5.68
-5.94
-6.85
-8.96
-12.26
-16.29
-20.47
-24.33
-27.84
-31.33
-35.38
-40.50
-46.97
-54.65
-63.09
-71.71
-80.24
-88.77
-97.79
-107.79
-118.82
-130.31
-140.88
-148.61
-151.24
-146.51
-132.64
-108.94
-76.53
-38.59
-0.02
33.74
58.26
71.40
73.78
68.23
58.69
49.08
42.52
40.86
44.30
51.14
57.90
60.26
54.58
39.71
17.77
-6.56
-28.06
-43.22
-51.38
-54.38
-54.78
-54.20
-52.54
-48.62
-41.37
-30.83
-17.91
-3.56
12.12
30.02
51.15
75.50
101.34
125.59
144.95
157.25
162.14
160.77
154.97
146.26
135.45
122.88
108.98
94.69
81.35
70.23
61.98
56.40
52.53
49.06
44.79
38.91
30.97
20.77
8.35
-6.06
-21.87
-38.14
-53.63
-67.17
-78.07
-86.45
-93.13
-99.22
-105.46
-111.65
-116.67
-118.85
-116.83
-110.21
-100.05
-88.69
-79.19
-74.29
-75.35
-81.73
-90.82
-98.91
-102.50
-99.63
-90.40
-76.57
-60.60
-44.44
-28.98
-14.21
0.17
14.10
27.14
38.76
48.92
58.24
67.78
78.39
90.12
101.97
112.17
118.86
120.75
117.45
109.32
97.10
81.67
64.12
46.05
29.60
17.12
10.39
9.94
14.83
23.29
33.61
44.89
56.87
69.35
81.33
90.82
95.49
93.75
85.57
72.63
57.65
43.28
31.24
21.90
14.57
8.00
1.08
-6.83
-15.71
-25.01
-33.90
-41.51
-47.16
-50.43
-51.11
-49.21
-44.81
-38.17
-29.69
-20.02
-10.08
-0.97
6.19
10.62
12.07
11.08
8.92
7.26
7.53
10.42
15.48
21.35
26.38
29.35
30.18
29.84
29.92
31.84
36.12
42.21
48.72
53.82
55.71
52.92
44.57
30.73
12.75
-6.78
-24.52
-37.38
-43.61
-43.33
-38.35
-31.20
-24.06
-18.07
-13.44
-9.99
-7.80
-7.40
-9.62
-15.07
-23.80
-35.14
-47.84
-60.51
-71.87
-81.16
-88.17
-93.12
-96.30
-97.47
-95.50
-88.48
-74.46
-52.49
-23.54
9.41
42.23
71.05
93.52
109.24
119.18
124.61
126.16
123.70
116.94
106.37
93.70
81.45
71.97
66.37
64.25
64.13
64.54
64.88
65.72
68.31
73.58
81.46
90.62
99.05
104.88
107.20
106.39
103.80
101.09
99.39
98.96
99.10
98.60
96.20
90.92
82.01
68.80
50.66
27.23
-1.06
-32.62
-64.82
-94.52
-119.12
-137.30
-149.32
-156.53
-160.65
-163.02
-164.36
-165.01
-165.27
-165.70
-167.01
-169.71
-173.78
-178.52
-182.85
-185.74
-186.86
-186.88
-187.34
-190.13
-196.76
-207.58
-221.54
-236.43
-249.63
-258.99
-263.41
-263.15
-259.52
-254.28
-248.91
-244.05
-239.22
-232.89
-223.25
-208.94
-189.70
-166.47
-141.05
-115.15
-89.68
-64.35
-37.76
-7.95
26.92
67.57
112.66
158.23
198.12
225.66
236.22
229.36
209.54
184.59
162.72
149.39
145.85
149.74
157.13
164.74
170.96
175.35
177.63
176.92
171.75
161.16
145.49
126.56
106.94
89.08
74.18
62.09
51.65
41.59
31.33
21.35
12.89
7.34
5.42
6.79
10.26
14.38
18.26
22.00
26.51
32.83
41.31
51.10
60.22
66.29
67.49
63.28
54.66
43.73
33.00
24.68
20.16
19.83
23.39
30.23
39.77
51.73
65.97
82.28
100.29
119.56
139.81
160.81
182.03
202.02
218.16
226.96
224.93
209.80
181.19
140.51
90.06
32.13
-31.27
-97.75
-163.41
-222.31
-267.32
-292.50
-295.76
-280.18
-253.28
-224.25
-200.41
-184.75
-175.53
-167.91
-156.79
-138.87
-113.44
-81.74
-45.65
-6.83
33.28
72.90
109.35
139.06
158.51
165.46
159.79
143.92
122.05
98.90
78.36
62.56
51.65
44.34
38.77
33.32
27.07
19.89
12.15
4.29
-3.41
-11.01
-18.62
-26.20
-33.40
-39.63
-44.39
-47.65
-49.85
-51.68
-53.62
-55.55
-56.75
-56.27
-53.40
-48.16
-41.29
-33.94
-27.20
-21.66
-17.34
-13.93
-11.11
-8.85
-7.44
-7.28
-8.59
-11.20
-14.57
-17.90
-20.46
-21.79
-21.71
-20.34
-17.94
-14.95
-12.01
-9.91
-9.46
-11.24
-15.44
-21.65
-29.05
-36.55
-42.96
-47.18
-48.26
-45.56
-38.92
-28.73
-16.01
-2.16
11.23
22.81
31.75
37.85
41.68
44.32
47.18
51.52
58.15
67.18
78.01
89.63
100.95
111.17
119.92
127.26
133.48
138.94
143.84
148.17
151.69
154.12
155.36
155.58
155.21
154.73
154.40
154.00
152.89
150.24
145.33
137.93
128.31
117.25
105.75
94.80
85.13
77.02
70.26
64.16
57.80
50.27
40.91
29.53
16.30
1.54
-14.44
-31.28
-48.29
-64.29
-77.67
-86.80
-90.63
-89.01
-82.78
-73.42
-62.52
-51.51
-41.52
-33.50
-28.21
-26.11
-27.13
-30.57
-35.26
-39.95
-43.73
-46.28
-47.81
-48.72
-49.37
-49.98
-50.59
-51.06
-51.11
-50.43
-48.67
-45.71
-41.77
-37.57
-34.29
-33.35
-35.93
-42.57
-52.78
-65.04
-77.19
-87.24
-94.17
-98.34
-101.20
-104.46
-109.01
-114.48
-119.41
-122.11
-121.57
-117.86
-111.94
-105.02
-98.10
-91.69
-85.91
-80.64
-75.58
-70.19
-63.81
-55.86
-46.25
-35.66
-25.40
-17.03
-11.70
-9.66
-10.22
-12.08
-13.87
-14.68
-14.26
-12.89
-10.97
-8.60
-5.37
-0.58
6.36
15.39
25.66
35.65
43.74
48.84
50.68
49.90
47.66
45.15
43.10
41.57
40.01
37.60
33.73
28.33
22.01
15.83
10.95
8.17
7.60
8.65
10.21
11.01
10.04
6.88
1.82
-4.32
-10.46
-15.63
-19.12
-20.48
-19.50
-16.38
-11.85
-7.36
-4.82
-5.92
-11.27
-19.82
-28.98
-35.44
-36.58
-31.47
-21.19
-8.20
4.88
16.22
25.09
31.43
35.06
35.34
31.29
22.23
8.40
-8.86
-27.48
-45.30
-60.64
-72.62
-81.05
-86.30
-89.01
-89.89
-89.47
-87.88
-84.78
-79.59
-71.75
-61.04
-47.61
-31.76
-13.73
6.30
27.85
49.76
70.06
86.40
96.79
100.42
97.88
90.90
81.59
71.81
62.88
55.52
49.96
46.01
42.99
39.71
34.83
27.28
16.82
4.26
-8.85
-20.84
-30.48
-37.31
-41.41
-43.09
-42.62
-40.21
-36.19
-31.15
-25.78
-20.63
-15.89
-11.36
-6.67
-1.58
3.91
9.55
15.06
20.19
24.76
28.50
31.00
31.79
30.45
26.80
20.99
13.50
4.98
-3.76
-11.91
-18.73
-23.76
-26.88
-28.30
-28.44
-27.70
-26.25
-24.03
-20.74
-16.07
-9.87
-2.25
6.36
15.23
23.45
30.03
34.09
35.10
33.00
28.25
21.72
14.53
7.77
2.38
-0.93
-1.87
-0.53
2.57
6.61
10.75
14.34
17.08
18.98
20.07
20.17
18.84
15.54
10.01
2.58
-5.75
-13.69
-20.07
-24.26
-26.30
-26.67
-25.91
-24.42
-22.34
-19.72
-16.57
-12.81
-8.12
-1.92
6.39
17.02
29.28
41.58
51.78
58.05
59.51
56.60
50.81
44.01
37.73
32.79
29.30
27.08
25.97
26.08
27.61
30.64
34.83
39.40
43.38
46.02
47.16
47.35
47.69
49.34
53.08
59.06
66.73
75.19
83.38
90.33
95.10
96.86
95.07
89.62
81.13
70.87
60.39
51.07
43.65
38.14
34.03
30.66
27.56
24.53
21.51
18.42
15.00
10.93
5.95
0.03
-6.53
-13.20
-19.33
-24.34
-27.98
-30.36
-31.93
-33.30
-34.93
-36.93
-39.11
-41.08
-42.46
-43.07
-42.91
-42.12
-40.93
-39.63
-38.63
-38.40
-39.20
-40.86
-42.72
-43.74
-43.03
-40.25
-35.78
-30.54
-25.55
-21.53
-18.81
-17.48
-17.59
-19.27
-22.42
-26.56
-30.64
-33.33
-33.49
-30.55
-24.74
-16.93
-8.31
-0.03
6.98
12.14
15.23
16.31
15.69
13.81
11.07
7.83
4.44
1.25
-1.34
-2.93
-3.35
-2.74
-1.61
-0.57
-0.13
-0.48
-1.46
-2.69
-3.78
-4.42
-4.57
-4.36
-4.05
-4.03
-4.69
-6.32
-8.97
-12.38
-16.03
-19.36
-22.04
-24.15
-26.16
-28.69
-32.11
-36.35
-40.78
-44.50
-46.55
-46.35
-43.77
-39.17
-33.20
-26.74
-20.59
-15.42
-11.60
-9.17
-7.84
-7.15
-6.60
-5.85
-4.80
-3.55
-2.22
-0.93
0.27
1.35
2.23
2.77
2.86
2.54
2.03
1.66
1.71
2.26
3.18
4.18
4.94
5.23
4.97
4.19
3.00
1.58
0.22
-0.75
-1.01
-0.35
1.17
3.30
5.59
7.61
8.95
9.33
8.62
6.90
4.49
1.98
0.13
-0.29
1.23
4.82
10.12
16.41
22.80
28.47
32.81
35.59
36.93
37.29
37.33
37.67
38.71
40.40
42.33
43.93
44.83
45.04
44.92
44.93
45.28
45.73
45.59
43.90
39.59
31.57
18.78
0.28
-24.43
-55.02
-89.89
-126.37
-161.30
-192.04
-217.29
-237.39
-253.86
-268.54
-282.67
-296.43
-309.14
-319.74
-327.41
-331.85
-333.11
-331.24
-325.83
-315.87
-300.05
-277.26
-247.22
-210.85
-170.16
-127.79
-86.17
-46.81
-9.95
25.33
60.70
97.97
138.49
182.61
229.30
275.91
318.39
351.96
372.23
376.51
364.88
340.50
308.84
276.05
247.03
224.01
206.37
191.61
177.03
161.10
143.95
126.73
110.53
95.55
81.10
66.31
51.15
36.66
24.40
15.46
9.62
5.42
0.86
-5.47
-13.61
-22.23
-29.23
-32.80
-32.23
-28.25
-22.75
-18.04
-16.07
-17.74
-22.76
-29.87
-37.41
-43.88
-48.20
-49.82
-48.43
-43.83
-35.91
-24.84
-11.39
2.98
16.25
26.38
31.98
32.94
30.48
26.84
24.38
24.74
28.32
34.28
41.17
47.62
52.90
56.96
60.07
62.35
63.48
62.85
60.00
55.00
48.62
42.07
36.53
32.72
30.70
29.98
29.79
29.42
28.39
26.46
23.55
19.68
14.83
9.04
2.42
-4.78
-12.06
-18.77
-24.25
-28.12
-30.53
-32.18
-34.12
-37.25
-41.76
-47.03
-51.77
-54.69
-55.09
-53.19
-49.99
-46.80
-44.59
-43.62
-43.43
-43.16
-41.98
-39.47
-35.68
-31.06
-26.14
-21.31
-16.76
-12.43
-8.22
-4.13
-0.39
2.53
4.05
3.66
1.11
-3.51
-9.85
-17.27
-25.02
-32.16
-37.70
-40.63
-40.15
-35.92
-28.21
-17.90
-6.27
5.37
15.89
24.59
31.13
35.50
37.91
38.71
38.32
37.13
35.43
33.33
30.77
27.59
23.58
18.61
12.64
5.84
-1.40
-8.38
-14.29
-18.47
-20.69
-21.32
-21.26
-21.45
-22.46
-24.20
-25.96
-26.78
-25.93
-23.14
-18.69
-13.17
-7.24
-1.42
4.00
8.87
13.11
16.66
19.34
20.90
21.13
19.98
17.72
15.05
12.88
12.18
13.73
17.91
24.71
33.71
44.12
54.85
64.73
72.65
77.88
80.22
79.91
77.40
73.12
67.24
59.76
50.73
40.38
29.16
17.52
5.76
-6.13
-18.33
-30.88
-43.46
-55.26
-65.21
-72.32
-76.19
-77.13
-76.13
-74.45
-73.07
-72.37
-71.99
-71.14
-69.01
-65.15
-59.64
-52.91
-45.47
-37.71
-29.82
-21.94
-14.39
-7.70
-2.56
0.30
0.37
-2.63
-8.57
-16.82
-26.30
-35.46
-42.81
-47.45
-49.41
-49.38
-48.10
-45.77
-41.99
-36.52
-30.14
-25.18
-24.82
-31.80
-46.98
-68.80
-94.09
-119.64
-143.41
-164.54
-182.39
-195.60
-202.00
-199.63
-187.90
-168.02
-142.14
-111.56
-75.81
-33.04
18.19
76.95
138.96
197.62
246.38
280.94
300.39
306.68
303.00
292.46
277.50
260.09
242.26
226.20
213.91
206.53
203.77
203.86
204.05
201.40
193.54
179.18
158.23
131.48
100.12
65.39
28.55
-8.77
-44.46
-75.92
-100.67
-117.24
-125.74
-127.84
-126.08
-122.84
-119.54
-116.34
-112.50
-107.05
-99.45
-89.80
-78.80
-67.47
-56.88
-47.89
-41.08
-36.65
-34.38
-33.76
-34.11
-34.67
-34.73
-33.51
-30.24
-24.14
-14.54
-1.08
15.96
35.49
55.45
73.13
85.71
91.02
88.18
77.92
62.24
43.81
25.11
7.92
-6.79
-18.55
-27.03
-31.83
-32.59
-29.29
-22.42
-12.82
-1.45
10.94
23.99
37.55
51.48
65.50
79.16
92.07
103.92
114.47
123.47
130.62
135.64
138.38
138.79
136.73
131.78
123.24
110.38
92.78
70.52
43.77
12.47
-23.87
-65.73
-112.58
-162.08
-210.00
-251.22
-281.50
-299.02
-304.97
-302.74
-296.31
-288.43
-279.58
-267.97
-250.49
-224.12
-187.29
-140.69
-87.40
-32.20
19.60
63.38
96.15
117.02
126.91
127.93
122.46
112.57
99.69
84.70
68.24
50.98
33.78
17.58
3.19
-8.87
-18.32
-25.02
-28.75
-29.27
-26.53
-20.99
-13.77
-6.42
-0.49
3.13
4.43
4.33
4.14
5.03
7.55
11.41
15.77
19.66
22.38
23.75
24.05
23.80
23.41
23.12
22.91
22.55
21.59
19.27
14.67
7.08
-3.24
-14.57
-23.77
-27.23
-22.38
-9.12
9.85
29.91
46.38
56.29
59.20
56.81
51.66
45.76
39.99
34.26
28.26
21.98
15.82
10.20
5.06
-0.22
-6.54
-14.49
-23.90
-33.74
-42.45
-48.49
-50.81
-49.10
-43.84
-36.03
-26.91
-17.74
-9.56
-3.14
1.13
3.22
3.58
2.99
2.43
2.85
4.75
8.01
11.80
14.88
16.03
14.61
10.80
5.63
0.55
-3.01
-4.18
-2.89
0.15
3.54
5.63
4.84
0.23
-8.07
-18.59
-28.70
-35.35
-36.18
-30.59
-20.25
-8.60
0.54
4.59
3.38
-0.87
-4.71
-5.17
-1.06
6.70
15.85
24.13
30.32
34.50
37.50
40.07
42.18
43.08
41.74
37.64
31.21
23.76
16.92
11.96
9.23
8.20
7.93
7.58
6.72
5.14
2.61
-1.09
-5.78
-10.44
-13.17
-11.86
-5.43
5.27
17.40
27.30
32.12
31.04
25.23
16.67
6.82
-4.13
-16.83
-31.67
-47.98
-64.23
-78.87
-91.24
-101.50
-109.79
-115.12
-115.11
-107.00
-89.34
-63.32
-32.65
-2.03
24.99
47.30
66.10
83.40
100.32
116.31
129.78
139.42
145.26
148.76
151.77
155.22
158.45
159.49
156.17
147.24
132.98
114.84
94.66
73.99
53.90
35.36
19.70
8.62
3.61
5.33
12.94
24.30
36.34
45.87
50.00
46.38
33.26
9.81
-23.39
-63.88
-107.27
-147.92
-180.41
-200.98
-208.62
-205.14
-194.35
-180.54
-167.15
-155.72
-145.80
-135.52
-122.51
-104.99
-82.35
-55.51
-26.66
1.20
24.99
42.26
51.91
54.60
52.62
49.31
48.07
51.29
59.68
72.20
86.53
99.90
109.77
114.40
112.97
105.65
93.50
78.28
62.05
46.75
33.72
23.44
15.62
9.42
3.87
-1.85
-8.31
-15.75
-24.04
-32.76
-41.26
-48.94
-55.46
-60.91
-65.68
-70.15
-74.30
-77.52
-78.74
-76.88
-71.37
-62.62
-51.92
-41.05
-31.64
-24.45
-19.16
-14.47
-8.74
-0.69
9.97
22.22
34.05
42.98
46.97
45.07
37.82
27.11
15.56
5.74
-0.57
-2.74
-1.34
2.24
6.34
9.57
11.16
11.20
10.41
9.77
9.91
10.66
10.95
9.31
4.64
-3.14
-12.85
-22.53
-30.24
-34.91
-36.63
-36.52
-35.95
-35.89
-36.40
-36.58
-35.07
-30.67
-23.02
-12.89
-1.96
7.82
14.99
19.17
21.11
22.05
23.04
24.37
25.53
25.65
24.15
21.12
17.32
13.69
10.93
9.13
7.88
6.60
4.90
2.76
0.45
-1.66
-3.42
-5.01
-6.79
-9.17
-12.29
-15.92
-19.57
-22.68
-24.86
-26.03
-26.43
-26.47
-26.63
-27.27
-28.65
-30.87
-33.77
-36.82
-39.00
-39.03
-35.77
-28.86
-19.12
-8.42
0.98
7.36
10.33
10.92
10.99
12.26
15.61
20.95
27.77
35.73
44.95
55.66
67.48
78.94
87.71
91.47
88.98
80.79
68.97
56.35
45.33
37.24
32.13
29.23
27.52
26.12
24.47
22.31
19.52
16.10
12.21
8.11
4.29
1.33
-0.12
0.46
3.32
8.14
13.95
19.18
22.00
20.89
15.09
4.95
-8.17
-22.34
-35.76
-47.27
-56.65
-64.30
-70.89
-76.93
-82.65
-88.05
-93.01
-97.14
-99.49
-98.53
-92.43
-79.96
-61.38
-38.75
-15.58
4.34
18.22
25.14
26.14
23.52
19.92
17.39
16.97
18.63
21.61
24.81
27.24
28.18
27.23
24.28
19.53
13.56
7.43
2.51
0.07
0.67
3.69
7.43
9.75
9.05
5.01
-1.27
-7.80
-12.65
-14.79
-14.41
-12.68
-11.15
-11.18
-13.47
-17.96
-23.94
-30.24
-35.63
-39.13
-40.24
-39.01
-35.87
-31.39
-25.94
-19.69
-12.79
-5.62
1.01
6.02
8.41
7.74
4.39
-0.58
-5.85
-10.30
-13.45
-15.43
-16.78
-18.07
-19.64
-21.48
-23.36
-25.00
-26.25
-27.11
-27.67
-27.92
-27.60
-26.23
-23.34
-18.66
-12.30
-4.72
3.47
11.76
19.83
27.55
34.76
41.11
45.98
48.66
48.62
45.76
40.47
33.49
25.66
17.72
10.12
3.03
-3.61
-9.99
-16.41
-23.06
-29.88
-36.36
-41.35
-43.25
-40.48
-32.23
-19.05
-3.02
12.76
25.18
32.28
33.99
31.99
28.92
27.15
27.82
30.59
34.02
36.37
36.45
33.97
29.59
24.43
19.74
16.50
15.28
16.25
19.22
23.76
29.26
35.14
40.91
46.27
51.06
55.07
57.86
58.79
57.19
52.64
45.27
35.72
24.94
13.83
2.94
-7.60
-17.95
-28.26
-38.46
-48.05
-56.16
-61.70
-63.73
-61.83
-56.32
-48.32
-39.42
-31.10
-24.25
-18.96
-14.78
-11.17
-7.96
-5.44
-4.11
-4.24
-5.58
-7.38
-8.77
-9.19
-8.64
-7.69
-7.15
-7.64
-9.20
-11.25
-12.84
-13.00
-11.28
-7.84
-3.43
0.96
4.49
6.81
8.05
8.64
9.04
9.50
9.93
10.00
9.35
7.80
5.47
2.78
0.37
-1.18
-1.59
-1.02
-0.03
0.64
0.47
-0.64
-2.25
-3.57
-3.86
-2.67
0.05
3.97
8.54
13.04
16.71
18.78
18.71
16.39
12.38
7.76
3.75
1.18
0.08
-0.29
-1.00
-2.82
-5.72
-8.80
-10.75
-10.42
-7.43
-2.25
3.97
9.99
14.80
17.94
19.36
19.26
17.92
15.74
13.40
11.79
11.91
14.45
19.45
26.09
32.76
37.48
38.73
36.32
31.95
29.13
32.14
44.32
66.54
96.35
128.46
156.20
173.53
176.46
163.75
136.69
98.44
53.39
6.57
-36.96
-72.81
-98.15
-112.24
-116.49
-113.96
-108.24
-102.38
-97.91
-94.46
-90.14
-82.49
-69.79
-51.98
-30.92
-9.81
7.98
20.02
25.52
25.16
20.56
13.49
5.46
-2.47
-9.59
-15.50
-20.04
-23.38
-25.96
-28.25
-30.63
-33.18
-35.79
-38.18
-40.12
-41.45
-42.17
-42.39
-42.29
-42.12
-42.03
-42.06
-42.06
-41.69
-40.44
-37.89
-33.78
-28.24
-21.71
-14.92
-8.67
-3.63
-0.24
1.40
1.45
0.30
-1.55
-3.63
-5.50
-6.86
-7.56
-7.59
-7.05
-6.14
-5.07
-4.08
-3.39
-3.18
-3.56
-4.50
-5.85
-7.44
-9.13
-10.92
-12.84
-14.84
-16.61
-17.58
-17.08
-14.74
-10.82
-6.17
-1.97
0.91
2.26
2.64
2.98
4.02
5.88
7.97
9.42
9.58
8.43
6.47
4.55
3.40
3.46
4.82
7.46
11.27
16.14
21.76
27.57
32.74
36.32
37.54
36.03
31.96
25.98
19.01
12.08
6.07
1.62
-0.98
-1.77
-1.05
0.68
2.80
4.68
5.81
5.80
4.44
1.77
-1.99
-6.40
-10.91
-14.96
-18.15
-20.36
-21.78
-22.85
-24.14
-26.12
-29.10
-33.12
-38.00
-43.42
-48.90
-53.89
-57.79
-60.03
-60.21
-58.28
-54.57
-49.73
-44.50
-39.52
-35.03
-30.88
-26.66
-22.09
-17.24
-12.45
-7.91
-3.11
3.26
12.98
27.51
47.18
70.82
96.07
120.24
141.10
157.21
167.90
172.85
171.86
164.96
152.79
136.79
119.03
101.51
85.58
71.57
58.86
46.37
33.16
18.85
3.74
-11.36
-25.45
-37.71
-47.67
-55.27
-60.72
-64.33
-66.39
-67.05
-66.40
-64.44
-61.18
-56.83
-51.90
-47.23
-43.88
-42.84
-44.67
-49.12
-55.07
-60.75
-64.28
-64.27
-60.09
-51.98
-40.91
-28.26
-15.67
-4.73
3.18
7.02
6.17
0.19
-11.28
-28.69
-52.38
-82.09
-116.32
-151.94
-184.47
-209.01
-221.52
-219.97
-204.70
-178.07
-143.55
-104.61
-64.02
-23.67
15.22
51.61
84.27
111.79
132.76
146.24
152.17
151.49
146.01
137.86
128.86
120.04
111.58
103.07
94.05
84.36
74.16
63.58
52.51
40.68
28.16
16.00
6.25
1.29
2.59
9.59
19.40
27.59
29.93
24.03
10.33
-8.22
-27.48
-43.79
-55.17
-61.69
-64.98
-67.34
-70.91
-77.03
-85.92
-96.45
-106.05
-110.88
-106.29
-88.02
-53.54
-3.45
58.11
124.20
186.83
239.11
276.99
299.85
309.95
311.00
306.79
300.25
293.20
286.58
280.61
274.96
268.76
260.82
249.87
235.01
215.87
192.47
164.99
133.59
98.47
60.26
20.21
-19.74
-57.37
-90.66
-118.14
-138.95
-152.73
-159.44
-159.52
-154.01
-144.61
-133.55
-123.06
-114.88
-109.84
-107.83
-107.97
-109.08
-110.09
-110.36
-109.74
-108.39
-106.58
-104.39
-101.58
-97.73
-92.35
-85.24
-76.59
-66.97
-57.18
-47.94
-39.73
-32.59
-26.25
-20.23
-14.19
-8.08
-2.26
2.63
5.91
7.16
6.29
3.52
-0.81
-6.32
-12.50
-18.50
-23.05
-24.61
-21.90
-14.40
-2.65
11.94
27.62
42.85
56.57
68.16
77.13
82.88
84.65
81.82
74.25
62.58
48.13
32.44
16.62
0.79
-16.05
-35.57
-59.35
-87.95
-120.27
-153.63
-184.40
-209.19
-225.88
-234.13
-235.37
-231.99
-226.51
-220.82
-215.85
-211.58
-207.34
-202.12
-194.70
-183.72
-167.56
-144.55
-113.43
-74.12
-28.24
20.78
68.36
110.01
142.61
165.00
177.88
182.86
181.40
174.24
161.61
143.90
122.23
98.39
74.08
50.19
26.62
3.10
-19.52
-38.45
-49.38
-48.22
-33.36
-7.15
24.30
53.16
72.65
79.26
73.55
59.14
40.84
22.76
7.33
-4.74
-13.79
-20.38
-24.80
-26.98
-26.72
-24.03
-19.34
-13.46
-7.34
-1.75
2.78
5.92
7.28
6.42
3.16
-1.83
-6.73
-8.75
-5.18
5.38
22.20
42.56
62.82
79.87
92.08
99.40
102.71
102.93
100.57
95.81
88.88
80.28
70.70
60.62
50.15
39.22
27.98
17.01
7.03
-1.79
-10.35
-20.39
-33.65
-50.57
-69.63
-87.73
-101.49
-108.81
-109.72
-106.06
-100.23
-93.89
-87.31
-79.62
-69.83
-57.62
-43.74
-29.64
-16.90
-6.61
0.85
5.64
8.20
9.07
8.79
7.87
6.80
5.92
5.29
4.54
2.93
-0.49
-6.44
-14.91
-24.81
-33.89
-39.30
-38.54
-30.62
-16.70
-0.05
15.08
25.02
28.12
25.30
19.43
13.98
11.39
12.21
15.15
17.99
18.85
17.00
12.90
7.57
1.86
-3.95
-9.89
-15.55
-19.69
-20.39
-15.81
-5.18
10.69
29.62
48.97
66.55
81.28
93.19
102.86
110.77
116.89
120.52
120.61
116.10
106.48
92.01
73.83
53.71
33.59
15.04
-0.99
-14.21
-24.68
-32.59
-38.16
-41.80
-44.29
-46.91
-51.20
-58.29
-68.35
-80.19
-91.49
-99.60
-102.50
-99.57
-91.87
-81.64
-71.62
-64.18
-60.60
-60.72
-62.83
-63.97
-60.77
-50.53
-32.42
-8.10
18.55
42.66
60.18
69.32
71.13
68.87
66.52
67.29
72.62
82.13
94.13
106.41
116.70
123.08
124.05
118.63
106.51
88.19
65.09
39.44
13.87
-9.24
-28.39
-43.31
-54.86
-64.31
-72.50
-79.23
-83.30
-83.25
-78.39
-69.52
-58.86
-49.18
-42.63
-39.85
-39.98
-41.23
-41.86
-40.87
-38.17
-34.32
-29.99
-25.60
-21.25
-16.87
-12.55
-8.74
-6.24
-5.88
-8.08
-12.46
-17.83
-22.53
-25.07
-24.72
-21.78
-17.46
-13.30
-10.61
-9.96
-10.93
-12.17
-11.75
-7.70
1.34
15.47
33.34
52.28
69.06
80.77
85.73
83.80
76.19
64.94
52.18
39.74
28.87
20.27
14.19
10.55
8.98
8.97
10.00
11.59
13.35
15.04
16.63
18.27
20.32
23.07
26.54
30.22
33.08
33.93
31.89
26.79
19.32
10.75
2.40
-4.81
-10.52
-14.92
-18.37
-21.11
-23.13
-24.26
-24.28
-23.13
-20.98
-18.18
-15.16
-12.30
-9.85
-7.98
-6.78
-6.37
-6.96
-8.73
-11.73
-15.74
-20.28
-24.70
-28.33
-30.68
-31.51
-30.86
-29.08
-26.74
-24.60
-23.42
-23.73
-25.60
-28.60
-31.95
-34.76
-36.38
-36.49
-35.09
-32.33
-28.42
-23.60
-18.32
-13.30
-9.61
-8.38
-10.43
-15.81
-23.50
-31.53
-37.42
-38.96
-34.95
-25.77
-13.33
-0.55
9.58
14.95
14.84
10.08
2.62
-5.17
-11.09
-13.71
-12.57
-8.30
-2.38
3.22
6.62
6.65
3.26
-2.35
-8.20
-12.13
-12.55
-8.86
-1.53
8.29
19.27
30.37
41.05
51.10
60.33
68.26
74.13
77.17
77.04
74.12
69.38
63.96
58.66
53.55
48.05
41.41
33.20
23.70
13.81
4.63
-3.00
-8.80
-13.03
-16.20
-18.72
-20.64
-21.68
-21.45
-19.78
-16.94
-13.69
-10.99
-9.67
-10.14
-12.22
-15.35
-18.85
-22.19
-25.09
-27.46
-29.26
-30.33
-30.49
-29.70
-28.20
-26.57
-25.55
-25.77
-27.44
-30.21
-33.30
-35.84
-37.17
-37.04
-35.64
-33.39
-30.84
-28.46
-26.63
-25.70
-25.89
-27.27
-29.68
-32.64
-35.50
-37.65
-38.66
-38.31
-36.38
-32.40
-25.59
-15.05
-0.29
18.33
39.37
60.64
79.80
95.04
105.52
111.30
113.02
111.40
106.85
99.53
89.48
76.92
62.46
46.93
31.23
16.06
1.79
-11.51
-24.04
-36.09
-47.98
-59.87
-71.65
-82.54
-90.99
-94.92
-92.42
-82.63
-66.46
-46.62
-26.80
-10.54
-0.21
3.49
1.28
-5.12
-13.56
-21.62
-26.82
-26.78
-19.71
-4.88
16.99
43.86
72.91
101.23
126.33
146.40
160.21
167.00
166.40
158.57
144.29
124.98
102.56
79.08
56.35
35.56
17.17
0.96
-13.75
-27.75
-41.71
-56.01
-70.66
-85.21
-98.60
-109.15
-114.82
-113.85
-105.57
-91.05
-72.98
-54.87
-39.59
-28.22
-19.69
-11.63
-1.85
10.18
22.85
33.10
37.88
35.85
28.06
17.62
8.37
3.34
3.64
8.37
15.45
22.75
29.03
34.14
38.57
42.76
46.61
49.37
50.15
48.49
44.65
39.58
34.47
30.17
26.85
24.03
20.91
16.80
11.55
5.56
-0.34
-5.33
-8.85
-10.84
-11.57
-11.49
-10.99
-10.30
-9.42
-8.27
-6.69
-4.65
-2.29
-0.03
1.55
1.79
0.22
-3.25
-8.23
-13.84
-19.08
-23.11
-25.56
-26.65
-27.07
-27.63
-28.88
-30.75
-32.62
-33.64
-33.26
-31.62
-29.55
-28.15
-28.21
-29.77
-32.17
-34.45
-35.93
-36.65
-37.35
-39.15
-42.93
-48.85
-56.24
-63.75
-69.84
-73.34
-73.84
-71.90
-68.90
-66.58
-66.58
-70.00
-77.06
-86.96
-97.74
-106.33
-108.77
-100.98
-80.04
-45.63
-0.84
48.28
94.37
131.07
154.81
165.15
163.88
153.42
135.82
112.80
86.80
61.88
43.59
37.19
45.10
65.08
90.18
111.15
120.16
114.15
96.13
73.79
55.89
48.21
51.04
59.38
65.75
64.15
52.98
35.54
17.99
6.00
1.96
4.28
8.67
10.65
7.64
-0.21
-10.73
-21.02
-28.55
-31.72
-29.89
-23.21
-12.56
0.45
13.57
24.44
31.13
32.77
29.65
22.96
14.38
5.70
-1.45
-5.86
-7.20
-6.43
-5.98
-9.11
-18.49
-34.55
-54.51
-72.88
-83.40
-81.79
-67.71
-45.15
-20.94
-2.17
6.23
2.84
-10.23
-28.29
-45.48
-56.35
-57.15
-46.86
-27.52
-3.71
18.77
34.68
40.85
37.05
25.78
11.34
-1.67
-9.62
-10.81
-5.61
4.01
15.29
25.62
33.01
36.31
34.99
29.12
19.37
7.12
-5.64
-16.92
-25.49
-31.47
-36.32
-42.12
-50.57
-62.19
-76.10
-90.35
-102.57
-110.44
-112.06
-106.21
-92.87
-73.61
-51.72
-31.45
-16.59
-8.72
-6.34
-5.39
-1.13
9.52
26.34
45.86
62.85
72.68
73.10
64.81
50.67
34.16
17.99
3.39
-9.59
-21.26
-31.56
-39.70
-44.55
-45.40
-42.64
-37.95
-33.87
-32.94
-36.90
-46.26
-60.22
-76.84
-92.96
-104.33
-106.30
-95.17
-70.10
-34.42
4.56
37.80
57.82
61.68
51.89
34.95
18.26
7.26
4.10
8.17
17.70
31.28
48.21
67.93
89.00
108.62
123.11
129.15
125.21
112.37
94.06
74.85
58.70
47.53
40.79
36.04
30.45
22.30
11.79
0.73
-8.55
-14.44
-16.85
-17.18
-17.68
-20.63
-27.69
-39.57
-55.83
-74.57
-92.28
-104.11
-105.03
-91.73
-64.38
-27.48
11.07
42.41
59.71
60.40
46.68
24.27
0.16
-19.50
-30.52
-30.71
-19.49
2.38
32.65
67.30
100.81
127.29
142.07
143.23
132.20
113.09
91.09
70.62
53.92
40.63
28.29
13.47
-6.74
-33.19
-63.65
-92.71
-113.15
-118.58
-106.27
-78.97
-44.50
-13.02
6.98
12.00
4.68
-7.88
-17.61
-19.12
-11.58
1.72
15.62
25.65
29.59
27.39
20.14
8.98
-5.06
-20.46
-34.49
-43.29
-43.15
-32.30
-12.28
12.22
34.99
50.61
56.25
52.18
40.99
26.11
10.45
-4.14
-16.86
-27.47
-35.85
-41.93
-45.75
-47.58
-47.94
-47.49
-46.84
-46.47
-46.66
-47.49
-48.85
-50.29
-51.10
-50.49
-47.87
-43.19
-37.00
-30.27
-23.95
-18.55
-13.98
-9.84
-5.89
-2.55
-0.96
-2.56
-8.25
-17.62
-28.68
-38.30
-43.37
-42.08
-34.70
-23.51
-11.82
-2.71
1.89
1.30
-4.09
-13.02
-23.15
-30.81
-31.46
-21.23
0.89
31.49
63.31
88.09
100.43
100.47
93.69
87.64
87.71
94.37
103.54
109.76
109.86
104.91
99.22
97.34
101.11
108.60
115.41
117.47
113.22
104.29
94.20
86.16
81.43
78.93
76.31
71.45
63.71
53.97
43.80
34.22
24.87
14.07
-0.28
-19.49
-43.24
-69.46
-95.15
-117.46
-134.62
-146.25
-152.96
-155.61
-154.77
-150.54
-142.88
-132.02
-118.93
-105.38
-93.68
-86.29
-85.06
-90.59
-101.46
-114.07
-123.30
-123.99
-113.08
-91.27
-63.43
-37.16
-19.97
-16.10
-24.66
-39.90
-53.60
-58.47
-51.06
-32.85
-9.29
12.68
27.44
32.50
28.88
20.19
11.07
5.75
7.15
16.54
33.47
56.02
81.05
104.80
123.72
135.34
138.71
134.46
124.12
109.31
91.05
69.39
43.72
13.46
-20.80
-56.43
-88.56
-111.03
-118.60
-109.45
-86.72
-58.05
-32.86
-18.52
-17.12
-24.80
-33.83
-36.52
-28.98
-12.63
6.85
22.57
29.60
26.80
16.72
3.92
-7.19
-13.79
-15.23
-12.46
-7.12
-0.72
5.82
12.20
18.41
24.43
29.94
34.22
36.38
35.58
31.53
24.93
17.61
12.36
12.06
18.56
31.62
48.58
65.05
76.53
80.22
76.29
67.68
58.59
52.48
50.57
51.80
53.92
54.98
54.25
52.06
48.93
44.72
38.41
28.67
14.67
-3.32
-23.95
-45.17
-64.82
-80.93
-91.87
-96.47
-94.13
-85.16
-70.86
-53.51
-35.98
-21.06
-10.74
-5.79
-5.48
-8.09
-11.51
-13.98
-14.57
-13.23
-10.63
-7.97
-6.89
-9.21
-16.24
-27.75
-41.19
-51.90
-54.73
-46.39
-27.41
-2.26
22.64
42.01
54.28
61.95
69.48
80.11
93.48
105.59
111.24
107.33
95.13
79.95
68.60
65.80
71.88
82.79
92.33
95.30
89.60
76.43
58.66
38.66
16.98
-7.33
-35.21
-65.88
-96.12
-121.17
-136.78
-141.22
-136.42
-127.39
-120.26
-119.94
-128.27
-143.60
-161.67
-177.11
-185.01
-181.71
-165.19
-135.33
-94.33
-46.93
0.16
39.96
67.57
81.99
86.21
85.19
82.87
80.05
74.55
63.57
46.72
27.54
12.32
6.79
12.83
27.13
42.78
52.78
53.39
45.44
33.26
22.03
15.15
13.18
14.37
16.28
17.38
17.63
18.08
19.83
23.13
27.14
30.36
31.51
30.29
27.62
25.23
24.72
26.58
29.76
31.96
30.79
24.94
15.03
3.53
-6.26
-11.67
-11.74
-7.72
-2.62
-0.07
-3.07
-13.28
-30.63
-53.50
-78.90
-102.75
-120.36
-127.51
-121.69
-103.39
-76.42
-46.96
-21.53
-4.39
4.00
6.99
9.83
16.85
29.10
43.79
55.71
60.06
55.04
42.85
28.71
18.39
15.61
20.64
30.77
42.05
51.31
57.34
60.79
63.09
65.32
67.42
68.22
66.07
59.61
48.41
33.31
16.47
0.95
-10.10
-14.31
-10.89
-0.79
13.67
29.62
44.29
55.49
61.61
61.73
55.77
44.72
30.66
16.19
3.60
-6.39
-15.17
-25.94
-42.40
-66.55
-96.84
-127.48
-149.74
-155.11
-138.96
-103.18
-56.15
-9.95
24.27
40.44
39.46
27.97
14.79
7.01
7.56
14.99
25.09
33.11
35.51
30.84
19.71
4.32
-12.06
-25.70
-33.10
-31.81
-21.14
-2.82
19.03
38.43
48.94
45.53
26.61
-4.57
-40.13
-69.62
-83.70
-77.80
-54.23
-21.48
9.38
29.26
34.75
28.80
18.48
10.98
10.20
15.57
23.31
29.12
30.48
27.37
21.57
15.27
10.27
7.79
8.95
14.90
26.48
43.27
63.07
82.11
96.06
101.57
97.28
84.21
65.10
43.44
22.38
4.04
-10.73
-22.12
-31.02
-38.30
-44.42
-49.18
-51.99
-52.45
-50.95
-48.88
-48.39
-51.62
-59.96
-73.47
-90.68
-108.65
-123.18
-129.48
-123.33
-102.63
-68.83
-27.25
14.10
46.95
65.80
69.91
63.43
53.47
47.07
48.44
57.81
72.00
86.17
95.84
98.06
91.72
77.19
55.77
29.36
0.42
-28.13
-53.09
-71.65
-82.27
-85.31
-83.00
-78.74
-75.84
-76.21
-79.62
-83.68
-84.89
-80.06
-67.78
-49.07
-27.10
-6.01
10.54
20.46
23.46
20.42
12.47
0.28
-16.02
-36.14
-58.56
-79.71
-94.24
-96.51
-83.00
-54.40
-16.33
22.01
50.99
64.20
60.98
46.49
29.33
17.80
16.41
24.51
37.18
48.02
52.08
47.84
37.44
25.31
16.03
12.40
14.50
20.03
25.46
27.57
24.57
16.58
5.51
-5.58
-13.37
-15.26
-10.17
0.84
14.54
26.23
31.23
26.75
13.29
-5.26
-23.00
-34.38
-36.33
-29.20
-16.12
-1.39
11.33
19.96
23.94
23.49
18.94
10.66
-0.47
-12.42
-22.06
-26.11
-22.60
-12.22
1.34
12.55
16.09
9.08
-7.79
-30.64
-53.94
-72.44
-82.45
-82.36
-72.37
-54.24
-31.01
-6.71
14.30
28.62
35.14
35.72
34.48
35.87
42.46
53.66
66.01
75.04
77.64
73.55
65.39
57.10
51.95
50.98
52.89
55.05
55.16
52.44
48.02
44.21
43.36
46.68
53.68
62.45
70.63
76.52
79.68
80.81
80.89
80.11
77.31
70.32
57.20
37.66
13.84
-10.20
-30.07
-42.87
-48.51
-49.66
-50.42
-54.38
-62.95
-74.79
-86.53
-94.43
-95.97
-90.83
-80.70
-68.22
-55.83
-44.94
-35.94
-28.70
-23.20
-19.76
-18.86
-20.55
-24.15
-28.34
-31.66
-33.09
-32.54
-30.84
-29.30
-29.19
-31.09
-34.67
-38.75
-41.84
-42.80
-41.35
-38.32
-35.30
-34.23
-36.79
-43.95
-55.48
-69.69
-83.29
-91.99
-91.74
-80.44
-59.27
-32.86
-7.92
9.20
15.10
10.67
0.65
-8.48
-11.16
-4.80
9.66
28.57
47.26
61.84
70.26
72.48
69.92
64.49
57.64
50.03
41.64
32.51
23.21
15.17
10.20
9.70
13.83
21.15
28.95
34.18
34.61
29.43
19.12
4.88
-12.04
-30.24
-47.73
-61.62
-68.61
-66.30
-54.73
-37.08
-18.64
-4.60
2.48
3.75
3.19
5.16
11.83
22.12
32.42
38.80
39.10
34.04
26.77
21.32
20.99
27.20
39.19
54.48
69.78
81.99
89.26
91.58
90.79
89.84
91.43
96.75
104.86
113.12
118.31
117.84
110.67
97.31
79.42
59.00
37.92
17.75
-0.23
-15.19
-26.93
-36.16
-44.31
-53.03
-63.45
-75.57
-88.08
-98.90
-105.97
-108.23
-106.23
-102.18
-99.35
-100.92
-108.53
-121.09
-134.46
-142.49
-139.13
-121.07
-89.49
-50.16
-11.60
17.88
33.17
33.99
24.66
12.20
3.63
3.69
13.59
31.08
51.62
69.95
81.64
84.14
77.30
63.27
45.84
29.60
18.64
15.58
20.66
31.56
43.86
52.38
52.93
43.90
27.03
7.02
-10.03
-18.85
-16.89
-5.39
11.13
26.42
34.73
32.72
20.45
1.15
-20.03
-37.76
-48.10
-49.46
-42.76
-30.85
-17.64
-6.93
-1.26
-1.14
-4.75
-8.47
-8.32
-1.78
10.74
25.64
37.41
41.08
34.63
20.14
2.99
-10.55
-16.02
-12.46
-2.30
10.06
20.34
25.88
26.28
23.09
18.87
16.13
16.46
20.08
25.84
31.63
34.99
33.99
27.82
17.16
4.13
-8.36
-17.58
-21.96
-21.64
-18.47
-15.32
-14.99
-19.18
-27.93
-39.66
-51.87
-61.94
-67.99
-69.25
-66.12
-59.87
-52.22
-44.69
-38.09
-32.18
-25.75
-17.16
-5.23
10.12
27.36
43.74
56.04
61.73
59.98
52.08
41.12
30.92
24.74
24.20
28.97
37.21
46.44
54.43
59.56
60.90
57.96
50.65
39.44
25.65
11.43
-0.81
-9.15
-12.94
-12.95
-10.89
-8.58
-7.23
-7.14
-7.90
-8.93
-9.90
-10.92
-12.33
-14.29
-16.58
-18.61
-19.76
-19.84
-19.35
-19.38
-21.11
-25.22
-31.42
-38.46
-44.54
-48.02
-47.97
-44.50
-38.53
-31.42
-24.47
-18.56
-14.09
-11.06
-9.19
-8.15
-7.56
-7.03
-6.13
-4.46
-1.92
1.22
4.17
5.91
5.49
2.45
-2.98
-9.91
-17.18
-23.60
-28.31
-30.94
-31.53
-30.52
-28.54
-26.32
-24.51
-23.56
-23.58
-24.40
-25.71
-27.30
-29.18
-31.57
-34.61
-38.04
-41.07
-42.57
-41.56
-37.76
-31.79
-25.12
-19.55
-16.68
-17.42
-21.63
-27.93
-33.69
-35.35
-29.32
-13.41
12.01
43.40
74.84
99.71
112.94
112.70
100.89
82.17
62.23
45.77
35.29
30.77
30.35
31.32
31.18
28.28
22.16
13.44
3.52
-5.82
-12.86
-16.33
-15.79
-11.85
-6.16
-1.03
1.21
-1.01
-7.87
-17.92
-28.46
-36.46
-39.65
-37.49
-31.26
-23.45
-16.62
-12.32
-10.71
-10.86
-11.51
-11.69
-10.98
-9.38
-7.11
-4.50
-2.07
-0.32
0.61
1.51
4.26
11.13
23.61
41.21
61.07
78.71
89.76
91.69
84.84
72.13
57.72
45.30
36.71
31.66
28.21
23.94
16.98
6.71
-6.24
-20.41
-34.13
-46.00
-55.12
-61.02
-63.62
-63.20
-60.49
-56.54
-52.35
-48.24
-43.51
-36.67
-26.32
-12.30
3.62
18.12
27.57
29.68
24.70
15.34
5.71
-0.41
-0.95
3.85
11.73
19.47
24.07
23.83
18.83
10.82
2.59
-3.12
-4.58
-1.73
4.02
10.35
15.13
17.27
17.14
16.19
16.15
18.06
21.67
25.54
27.73
26.80
22.59
16.23
9.58
4.22
0.83
-0.94
-2.06
-3.45
-5.64
-8.81
-12.96
-18.04
-23.76
-29.32
-33.31
-34.02
-30.20
-21.87
-10.73
0.08
6.95
7.03
-0.64
-14.74
-32.06
-48.54
-60.49
-65.45
-62.71
-53.37
-39.95
-25.86
-14.38
-7.50
-4.92
-3.96
-0.75
7.58
20.72
34.66
43.27
41.63
29.16
10.64
-5.69
-12.17
-5.52
11.53
31.72
46.81
51.34
44.72
30.84
15.78
5.07
1.68
5.53
14.39
25.24
35.54
43.88
49.95
54.00
56.25
56.70
55.17
51.73
47.02
42.30
39.02
38.28
40.25
43.95
47.66
49.76
49.69
48.53
48.76
53.07
62.84
76.93
91.58
101.61
102.28
91.19
69.13
39.68
7.84
-21.70
-45.83
-63.47
-75.26
-82.83
-87.99
-92.19
-96.21
-100.02
-103.04
-104.47
-103.59
-100.06
-94.06
-86.19
-77.31
-68.35
-60.11
-53.20
-47.92
-44.21
-41.65
-39.57
-37.28
-34.31
-30.60
-26.51
-22.68
-19.77
-18.15
-17.79
-18.25
-18.86
-18.96
-18.04
-15.60
-10.95
-3.23
8.34
23.89
42.36
61.30
77.23
86.62
86.98
77.75
60.44
38.21
14.86
-6.16
-22.49
-33.20
-38.67
-40.12
-39.04
-36.77
-34.20
-31.84
-30.04
-29.05
-28.98
-29.60
-30.18
-29.55
-26.58
-20.65
-12.18
-2.60
6.03
11.80
13.62
11.55
6.74
0.94
-4.08
-7.02
-7.38
-5.48
-2.25
1.17
3.84
5.28
5.59
5.30
4.98
4.90
4.71
3.46
-0.08
-6.86
-16.94
-29.21
-41.52
-51.39
-56.83
-57.13
-53.18
-47.10
-41.44
-38.24
-38.38
-41.31
-44.99
-46.30
-41.68
-28.31
-5.33
25.10
57.70
85.40
101.75
103.66
92.98
76.01
60.91
54.30
58.56
71.23
86.57
98.36
102.22
96.81
83.56
65.53
46.19
28.57
15.00
6.88
4.61
7.40
13.30
19.54
22.97
20.87
11.67
-4.30
-24.53
-44.70
-59.97
-66.68
-63.68
-52.80
-37.94
-23.53
-12.87
-7.32
-6.47
-9.07
-13.92
-20.46
-28.56
-37.96
-47.65
-55.70
-59.76
-57.91
-49.66
-36.46
-21.37
-7.96
1.21
5.66
7.15
8.74
13.16
21.39
32.21
42.83
50.20
52.39
49.33
42.71
35.13
28.98
25.58
24.81
25.44
25.80
24.44
20.63
14.42
6.59
